"[0.0, 0.0, 0.0, 0.0, 0.0, 0.0, 0.0, 0.0, 0.0, 0.0, 0.0, 0.0, 0.0, 0.0, 0.0, 0.0, 0.0, 0.0, 0.0, 0.0, 0.0, 0.0, 0.0, 0.0, 0.0, 0.0, 0.0, 0.0, 0.0, 0.0, 0.0, 0.0, 0.0, 0.0, 0.0, 0.0, 0.0, 0.0, 0.0, 0.0, 0.0, 0.0, 0.0, 0.0, 0.0, 0.0, 0.0, 0.0, 0.0, 0.0, 0.0, 0.0, 0.0, 0.0, 0.0, 0.0, 0.0, 0.0, 0.0, 0.0, 0.0, 0.0, 0.0, 0.0, 0.0, 0.0, 0.0, 0.0, 0.0, 0.0, 0.0, 0.0, 0.0, 0.0, 0.0, 0.0, 0.0, 0.0, 0.0, 0.0, 0.0, 0.0, 0.0, 0.0, 0.0, 0.0, 0.0, 0.0, 0.0, 0.0, 0.0, 0.0, 0.0, 0.0, 0.0, 0.0, 0.0, 0.0, 0.0, 0.0, 0.0, 0.0, 0.0, 0.0, 0.0, 0.0, 0.0, 0.0, 0.0, 0.0, 0.0, 0.0, 0.0, 0.0, 0.0, 0.0, 0.0, 0.0, 0.0, 0.0, 0.0, 0.0, 0.0, 0.0, 0.0, 0.0, 0.0, 0.0, 0.0, 0.0, 0.0, 0.0, 0.0, 0.0, 0.0, 0.0, 0.0, 0.0, 0.0, 0.0, 0.0, 0.0, 0.0, 0.0, 0.0, 0.0, 0.0, 0.0, 0.0, 0.0, 0.0, 0.0, 0.0, 0.0, 0.0, 0.0, 0.0, 0.0, 0.0, 0.0, 0.0, 0.0, 0.0, 0.0, 0.0, 0.0, 0.0, 0.0, 0.0, 0.0, 0.0, 0.0, 0.0, 0.0, 0.0, 0.0, 0.0, 0.0, 0.0, 0.0, 0.0, 0.0, 0.0, 0.0, 0.0, 0.0, 0.0, 0.0, 0.0, 0.0, 0.0, 0.0, 0.0, 0.0, 0.0, 0.0, 0.0, 0.0, 0.0, 0.0, 0.0, 0.0, 0.0, 0.0, 0.0, 0.0, 0.0, 0.0, 0.0, 0.0, 0.0, 0.0, 0.0, 0.0, 0.0, 0.0, 0.0, 0.0, 0.0, 0.0, 0.0, 0.0, 0.0, 0.0, 0.0, 0.0, 0.0, 0.0, 0.0, 0.0, 0.0, 0.0, 0.0, 0.0, 0.0, 0.0, 0.0, 0.0, 0.0, 0.0, 0.0, 0.0, 0.0, 0.0, 0.0, 0.0, 0.0, 0.0, 0.0, 0.0, 0.0, 0.0, 0.0, 0.0, 0.0, 0.0, 0.0, 0.0, 0.0, 0.0, 0.0, 0.0, 0.0, 0.0, 0.0, 0.0, 0.0, 0.0, 0.0, 0.0, 0.0, 0.0, 0.0, 0.0, 0.0, 0.0, 0.0, 0.0, 0.0, 0.0, 0.0, 0.0, 0.0, 0.0, 0.0, 0.0, 0.0, 0.0, 0.0, 0.0, 0.0, 0.0, 0.0, 0.0, 0.0, 0.0, 0.0, 0.0, 0.0, 0.0, 0.0, 0.0, 0.0, 0.0, 0.0, 0.0, 0.0, 0.0, 0.0, 0.0, 0.0, 0.0, 0.0, 0.0, 0.0, 0.0, 0.0, 0.0, 0.0, 0.0, 0.0, 0.0, 0.0, 0.0, 0.0, 0.0, 0.0, 0.0, 0.0, 0.0, 0.0, 0.0, 0.0, 0.0, 0.0, 0.0, 0.0, 0.0, 0.0, 0.0, 0.0, 0.0, 0.0, 0.0, 0.0, 0.0, 0.0, 0.0, 0.0, 0.0, 0.0, 0.0, 0.0, 0.0, 0.0, 0.0, 0.0, 0.0, 0.0, 0.0, 0.0, 0.0, 0.0, 0.0, 0.0, 0.0, 0.0, 0.0, 0.0, 0.0, 0.0, 0.0, 0.0, 0.0, 0.0, 0.0, 0.0, 0.0, 0.0, 0.0, 0.0, 0.0, 0.0, 0.0, 0.0, 0.0, 0.0, 0.0, 0.0, 0.0, 0.0, 0.0, 0.0, 0.0, 0.0, 0.0, 0.0, 0.0, 0.0, 0.0, 0.0, 0.0, 0.0, 0.0, 0.0, 0.0, 0.0, 0.0, 0.0, 0.0, 0.0, 0.0, 0.0, 0.0, 0.0, 0.0, 0.0, 0.0, 0.0, 0.0, 0.0, 0.0, 0.0, 0.0, 0.0, 0.0, 0.0, 0.0, 0.0, 0.0, 0.0, 0.0, 0.0, 0.0, 0.0, 0.0, 0.0, 0.0, 0.0, 0.0, 0.0, 0.0, 0.0, 0.0, 0.0, 0.0, 0.0, 0.0, 0.0, 0.0, 0.0, 0.0, 0.0, 0.0, 0.0, 0.0, 0.0, 0.0, 0.0, 0.0, 0.0, 0.0, 0.0, 0.0, 0.0, 0.0, 0.0, 0.0, 0.0, 0.0, 0.0, 0.0, 0.0, 0.0, 0.0, 0.0, 0.0, 0.0, 0.0, 0.0, 0.0, 0.0, 0.0, 0.0, 0.0, 0.0, 0.0, 0.0, 0.0, 0.0, 0.0, 0.0, 0.0, 0.0, 0.0, 0.0, 0.0, 0.0, 0.0, 0.0, 0.0, 0.0, 0.0, 0.0, 0.0, 0.0, 0.0, 0.0, 0.0, 0.0, 0.0, 0.0, 0.0, 0.0, 0.0, 0.0, 0.0, 0.0, 0.0, 0.0, 0.0, 0.0, 0.0, 0.0, 0.0, 0.0, 0.0, 0.0, 0.0, 0.0, 0.0, 0.0, 0.0, 0.0, 0.0, 0.0, 0.0, 0.0, 0.0, 0.0, 0.0, 0.0, 0.0, 0.0, 0.0, 0.0, 0.0, 0.0, 0.0, 0.0, 0.0, 0.0, 0.0, 0.0, 0.0, 0.0, 0.0, 0.0, 0.0, 0.0, 0.0, 0.0, 0.0, 0.0, 0.0, 0.0, 0.0, 0.0, 0.0, 0.0, 0.0, 0.0, 0.0, 0.0, 0.0, 0.0, 0.0, 0.0, 0.0, 0.0, 0.0, 0.0, 0.0, 0.0, 0.0, 0.0, 0.0, 0.0, 0.0, 0.0, 0.0, 0.0, 0.0, 0.0, 0.0, 0.0, 0.0, 0.0, 0.0, 0.0, 0.0, 0.0, 0.0, 0.0, 0.0, 0.0, 0.0, 0.0, 0.0, 0.0, 0.0, 0.0, 0.0, 0.0, 0.0, 0.0, 0.0, 0.0, 0.0, 0.0, 0.0, 0.0, 0.0, 0.0, 0.0, 0.0, 0.0, 0.0, 0.0, 0.0, 0.0, 0.0, 0.0, 0.0, 0.0, 0.0, 0.0, 0.0, 0.0, 0.0, 0.0, 0.0, 0.0, 0.0, 0.0, 0.0, 0.0, 0.0, 0.0, 0.0, 0.0, 0.0, 0.0, 0.0, 0.0, 0.0, 0.0, 0.0, 0.0, 0.0, 0.0, 0.0, 0.0, 0.0, 0.0, 0.0, 0.0, 0.0, 0.0, 0.0, 0.0, 0.0, 0.0, 0.0, 0.0, 0.0, 0.0, 0.0, 0.0, 0.0, 0.0, 0.0, 0.0, 0.0, 0.0, 0.0, 0.0, 0.0, 0.0, 0.0, 0.0, 0.0, 0.0, 0.0, 0.0, 0.0, 0.0, 0.0, 0.0, 0.0, 0.0, 0.0, 0.0, 0.0, 0.0, 0.0, 0.0, 0.0, 0.0, 0.0, 0.0, 0.0, 0.0, 0.0, 0.0, 0.0, 0.0, 0.0, 0.0, 0.0, 0.0, 0.0, 0.0, 0.0, 0.0, 0.0, 0.0, 0.0, 0.0, 0.0, 0.0, 0.0, 0.0, 0.0, 0.0, 0.0, 0.0, 0.0, 0.0, 0.0, 0.0, 0.0, 0.0, 0.0, 0.0, 0.0, 0.0, 0.0, 0.0, 0.0, 0.0, 0.0, 0.0, 0.0, 0.0, 0.0, 0.0, 0.0, 0.0, 0.0, 0.0, 0.0, 0.0, 0.0, 0.0, 0.0, 0.0, 0.0, 0.0, 0.0, 0.0, 0.0, 0.0, 0.0, 0.0, 0.0, 0.0, 0.0, 0.0, 0.0, 0.0, 0.0, 0.0, 0.0, 0.0, 0.0, 0.0, 0.0, 0.0, 0.0, 0.0, 0.0, 0.0, 0.0, 0.0, 0.0, 0.0, 0.0, 0.0, 0.0, 0.0, 0.0, 0.0, 0.0, 0.0, 0.0, 0.0, 0.0, 0.0, 0.0, 0.0, 0.0, 0.0, 0.0, 0.0, 0.0, 0.0, 0.0, 0.0, 0.0, 0.0, 0.0, 0.0, 0.0, 0.0, 0.0, 0.0, 0.0, 0.0, 0.0, 0.0, 0.0, 0.0, 0.0, 0.0, 0.0, 0.0, 0.0, 0.0, 0.0, 0.0, 0.0, 0.0, 0.0, 0.0, 0.0, 0.0, 0.0, 0.0, 0.0, 0.0, 0.0, 0.0, 0.0, 0.0, 0.0, 0.0, 0.0, 0.0, 0.0, 0.0, 0.0, 0.0, 0.0, 0.0, 0.0, 0.0, 0.0, 0.0, 0.0, 0.0, 0.0, 0.0, 0.0, 0.0, 0.0, 0.0, 0.0, 0.0, 0.0, 0.0, 0.0, 0.0, 0.0, -0.048508430609597926, -0.028366521705958644, -0.010238803692683297, 0.0011749446860456242, 0.011917296101319903, 0.02668802929732204, 0.03978027008468757, 0.05555809872587166, 0.07167162584878309, 0.07469291218432898, 0.0767071030746929, 0.07570000762951096, 0.07100022888532845, 0.06697184710460058, 0.06126497291523613, 0.05354390783550774, 0.04078736552986953, 0.023834592202639806, 0.00788891432059205, -0.0055390249485008005, -0.017288471808957043, -0.024338139925230793, -0.043976501106279084, -0.06764324406805522, -0.07872129396505684, -0.08107118333714809, -0.08476386663614863, -0.08644235904478523, -0.08342107270923933, -0.0780498970016022, -0.07200732433051041, -0.06260776684214542, -0.051865415426871134, -0.03508049134050507, -0.01292439154650187, -0.00016784924086366064, 0.008560311284046692, 0.024673838406958113, 0.04414435034714275, 0.058915083543144876, 0.06630045014114595, 0.0750286106660563, 0.08107118333714809, 0.08140688181887541, 0.07905699244678416, 0.07368581673914701, 0.06898603799496453, 0.06663614862287326, 0.048508430609597926, 0.025345235370412753, 0.008896009765774012, -0.005874723430228122, -0.021652552071412222, -0.03508049134050507, -0.044480048828870064, -0.053208209353780414, -0.06529335469596398, -0.07435721370260165, -0.08342107270923933, -0.08812085145342184, -0.07771419851987486, -0.06865033951323721, -0.06562905317769131, -0.06126497291523613, -0.05119401846341649, -0.036423285267414354, -0.01913481345845731, -0.004867627985046159, 0.00788891432059205, 0.025680933852140077, 0.041123064011596856, 0.05253681239032577, 0.06294346532387274, 0.08039978637369342, 0.08308537422751203, 0.074189364461738, 0.06730754558632791, 0.06529335469596398, 0.06294346532387274, 0.05958648050659952, 0.04917982757305257, 0.0323949034866865, 0.01326009002822919, -0.004867627985046159, -0.021652552071412222, -0.03373769741359579, -0.03927672236209659, -0.05522240024414436, -0.07217517357137408, -0.0800640878919661, -0.07939269092851148, -0.07905699244678416, -0.08140688181887541, -0.0767071030746929, -0.07200732433051041, -0.06663614862287326, -0.05589379720759898, -0.041962310215915156, -0.020981155107957578, 0.0052033264667734795, 0.01695277332722972, 0.02366674296177615, 0.03659113450827802, 0.051529716945143814, 0.06327916380560006, 0.07335011825741969, 0.08140688181887541, 0.08039978637369342, 0.07469291218432898, 0.06831464103150987, 0.06126497291523613, 0.056900892652780956, 0.052201113908598454, 0.03407339589532311, 0.014938582436865796, 0.0011749446860456242, -0.010406652933546959, -0.024338139925230793, -0.042465857938506144, -0.05589379720759898, -0.06730754558632791, -0.07872129396505684, -0.08711375600823987, -0.08694590676737621, -0.08073548485542076, -0.07100022888532845, -0.06764324406805522, -0.06327916380560006, -0.05522240024414436, -0.042465857938506144, -0.025680933852140077, -0.0028534370946822307, 0.016449225604638743, 0.028702220187685965, 0.041123064011596856, 0.05270466163118945, 0.06428625925078202, 0.07469291218432898, 0.08644235904478523, 0.0844281681544213, 0.07301441977569237, 0.06546120393682765, 0.06092927443350881, 0.056900892652780956, 0.04649423971923399, 0.03205920500495917, 0.016449225604638743, -0.0015106431677729458, -0.016784924086366067, -0.03105210955977722, -0.04716563668268864, -0.054551003280689715, -0.06730754558632791, -0.07989623865110246, -0.08577096208133059, -0.08409246967269397, -0.08174258030060273, -0.08174258030060273, -0.07402151522087433, -0.060761425192645144, -0.049515526054779886, -0.03440909437705043, -0.014267185473411156, 0.005706874189364461, 0.022995345998321506, 0.03105210955977722, 0.03843747615777828, 0.05119401846341649, 0.06529335469596398, 0.07402151522087433, 0.07570000762951096, 0.07469291218432898, 0.07368581673914701, 0.07234302281223774, 0.06495765621423667, 0.05589379720759898, 0.049515526054779886, 0.04213015945677882, 0.022491798275730522, -0.0010070954451819635, -0.016617074845502403, -0.02668802929732204, -0.03810177767605096, -0.04800488288700694, -0.05790798809796292, -0.06881818875410085, -0.07704280155642022, -0.08375677119096665, -0.0861066605630579, -0.07872129396505684, -0.064789806973373, -0.06126497291523613, -0.059250782024872196, -0.04313725490196078, -0.024673838406958113, -0.010574502174410621, 0.004531929503318838, 0.01829556725413901, 0.030045014114595252, 0.04548714427405204, 0.06160067139696345, 0.07351796749828336, 0.0797283894102388, 0.0861066605630579, 0.08308537422751203, 0.0750286106660563, 0.06680399786373693, 0.057572289616235596, 0.04515144579232471, 0.03105210955977722, 0.017959868772411687, 0.001846341649500267, -0.01594567788204776, -0.033234149691004806, -0.04649423971923399, -0.057236591134508276, -0.06160067139696345, -0.07267872129396505, -0.08241397726405737, -0.08744945448996719, -0.08744945448996719, -0.08174258030060273, -0.07267872129396505, -0.06462195773250935, -0.057236591134508276, -0.04582284275577936, -0.029877164873731592, -0.011581597619592583, 0.011245899137865261, 0.033401998931868467, 0.037262531471732654, 0.04145876249332417, 0.05622949568932631, 0.07066453040360113, 0.07637140459296558, 0.07637140459296558, 0.07821774624246586, 0.07905699244678416, 0.07234302281223774, 0.06294346532387274, 0.05253681239032577, 0.043472953383688104, 0.037262531471732654, 0.014267185473411156, -0.010238803692683297, -0.027695124742504008, -0.04011596856641489, -0.050186923018234526, -0.062272068360418105, -0.07452506294346531, -0.08476386663614863, -0.08879224841687647, -0.08308537422751203, -0.07368581673914701, -0.06730754558632791, -0.050522621499961846, -0.04129091325246051, -0.03910887312123293, -0.03205920500495917, -0.014938582436865796, 0.005874723430228122, 0.021652552071412222, 0.03407339589532311, 0.04414435034714275, 0.05522240024414436, 0.06697184710460058, 0.07570000762951096, 0.08375677119096665, 0.08812085145342184, 0.07838559548332952, 0.06831464103150987, 0.062272068360418105, 0.05488670176241703, 0.041794460975051496, 0.024673838406958113, 0.005874723430228122, -0.010238803692683297, -0.026352330815594724, -0.043808651865415424, -0.05522240024414436, -0.06462195773250935, -0.07066453040360113, -0.08140688181887541, -0.0891279468986038, -0.08677805752651253, -0.08207827878233005, -0.07704280155642022, -0.06730754558632791, -0.05656519417105363, -0.04531929503318838, -0.028366521705958644, -0.008896009765774012, 0.010574502174410621, 0.028702220187685965, 0.044815747310597384, 0.051865415426871134, 0.05824368657969024, 0.06797894254978255, 0.07704280155642022, 0.08039978637369342, 0.07905699244678416, 0.07603570611123828, 0.07066453040360113, 0.06160067139696345, 0.050690470740825506, 0.03810177767605096, 0.028030823224231328, 0.019638361181048294, -0.005874723430228122, -0.028366521705958644, -0.03978027008468757, -0.049515526054779886, -0.060593575951781484, -0.07066453040360113, -0.07872129396505684, -0.08577096208133059, -0.08744945448996719, -0.08140688181887541, -0.07217517357137408, -0.05857938506141757, -0.04582284275577936, -0.04615854123750667, -0.03843747615777828, -0.01896696421759365, 0.0008392462043183033, 0.020309758144502935, 0.040451667048142216, 0.049851224536507206, 0.05622949568932631, 0.06562905317769131, 0.0750286106660563, 0.07905699244678416, 0.08090333409628443, 0.08039978637369342, 0.07049668116273747, 0.06025787747005417, 0.050186923018234526, 0.03860532539864195, 0.022995345998321506, 0.0015106431677729458, -0.01829556725413901, -0.029709315632867935, -0.0379339284351873, -0.050522621499961846, -0.06596475165941862, -0.07469291218432898, -0.07335011825741969, -0.07872129396505684, -0.0844281681544213, -0.08342107270923933, -0.07637140459296558, -0.06462195773250935, -0.053208209353780414, -0.042465857938506144, -0.030380712596322572, -0.016617074845502403, 0.0005035477225909818, 0.016617074845502403, 0.033066300450141146, 0.05387960631723506, 0.06294346532387274, 0.06663614862287326, 0.0694895857175555, 0.0750286106660563, 0.08073548485542076, 0.07905699244678416, 0.07469291218432898, 0.06797894254978255, 0.05488670176241703, 0.042465857938506144, 0.028030823224231328, 0.010910200656137941, 0.0005035477225909818, -0.01560997940032044, -0.03373769741359579, -0.050186923018234526, -0.06462195773250935, -0.07133592736705577, -0.07469291218432898, -0.08140688181887541, -0.08543526359960325, -0.0800640878919661, -0.07872129396505684, -0.07402151522087433, -0.05958648050659952, -0.037094682230869, -0.025680933852140077, -0.019638361181048294, -0.0021820401312275884, 0.01695277332722972, 0.030380712596322572, 0.04649423971923399, 0.058915083543144876, 0.06327916380560006, 0.06630045014114595, 0.06965743495841917, 0.07301441977569237, 0.07637140459296558, 0.07737850003814756, 0.06831464103150987, 0.05622949568932631, 0.043472953383688104, 0.025345235370412753, 0.005706874189364461, -0.008224612802319372, -0.020309758144502935, -0.03373769741359579, -0.04582284275577936, -0.05656519417105363, -0.06529335469596398, -0.06999313344014649, -0.06697184710460058, -0.07603570611123828, -0.08409246967269397, -0.0780498970016022, -0.06730754558632791, -0.060593575951781484, -0.05119401846341649, -0.03776607919432364, -0.02265964751659419, -0.0055390249485008005, 0.014435034714274816, 0.028702220187685965, 0.04515144579232471, 0.06697184710460058, 0.07284657053482871, 0.07217517357137408, 0.07771419851987486, 0.08107118333714809, 0.07905699244678416, 0.0703288319218738, 0.05992217898832684, 0.05421530479896238, 0.04615854123750667, 0.029205767910276948, 0.011917296101319903, -0.0015106431677729458, -0.011078049897001601, -0.02853437094682231, -0.04917982757305257, -0.06092927443350881, -0.07066453040360113, -0.0788891432059205, -0.08476386663614863, -0.0891279468986038, -0.08812085145342184, -0.08274967574578469, -0.07066453040360113, -0.05874723430228122, -0.04582284275577936, -0.025680933852140077, -0.017959868772411687, -0.008896009765774012, 0.009231708247501335, 0.02652018005645838, 0.03944457160296025, 0.04917982757305257, 0.057236591134508276, 0.06663614862287326, 0.0750286106660563, 0.07704280155642022, 0.08023193713282978, 0.0844281681544213, 0.08342107270923933, 0.06630045014114595, 0.0481727321278706, 0.03407339589532311, 0.021652552071412222, 0.004531929503318838, -0.01326009002822919, -0.030380712596322572, -0.04548714427405204, -0.057236591134508276, -0.06730754558632791, -0.07234302281223774, -0.07486076142519264, -0.07368581673914701, -0.07838559548332952, -0.08274967574578469, -0.0800640878919661, -0.07267872129396505, -0.05857938506141757, -0.043976501106279084, -0.028702220187685965, -0.01326009002822919, 0.004531929503318838, 0.02366674296177615, 0.040451667048142216, 0.05622949568932631, 0.07402151522087433, 0.07939269092851148, 0.0797283894102388, 0.08140688181887541, 0.08308537422751203, 0.07905699244678416, 0.0694895857175555, 0.058915083543144876, 0.050522621499961846, 0.03860532539864195, 0.02366674296177615, 0.0052033264667734795, -0.011581597619592583, -0.01829556725413901, -0.03508049134050507, -0.05555809872587166, -0.06881818875410085, -0.07570000762951096, -0.07939269092851148, -0.08358892195010299, -0.08476386663614863, -0.08258182650492102, -0.07536430914778362, -0.06462195773250935, -0.051865415426871134, -0.035751888303959714, -0.01560997940032044, -0.006881818875410085, 0.0003356984817273213, 0.015106431677729458, 0.03189135576409552, 0.04515144579232471, 0.05421530479896238, 0.06294346532387274, 0.07234302281223774, 0.08308537422751203, 0.08577096208133059, 0.0780498970016022, 0.0703288319218738, 0.06630045014114595, 0.052201113908598454, 0.033401998931868467, 0.017959868772411687, 0.0021820401312275884, -0.010910200656137941, -0.022491798275730522, -0.037094682230869, -0.051865415426871134, -0.06428625925078202, -0.07368581673914701, -0.08342107270923933, -0.08677805752651253, -0.07435721370260165, -0.07133592736705577, -0.07335011825741969, -0.06730754558632791, -0.05790798809796292, -0.04716563668268864, -0.0323949034866865, -0.012252994583047227, 0.006546120393682764, 0.0213168535896849, 0.033401998931868467, 0.043472953383688104, 0.05958648050659952, 0.08107118333714809, 0.08207827878233005, 0.07536430914778362, 0.07553215838864728, 0.07435721370260165, 0.06898603799496453, 0.0639505607690547, 0.05354390783550774, 0.03608758678568704, 0.019806210421911954, 0.006546120393682764, -0.004531929503318838, -0.017624170290684367, -0.025009536888685433, -0.04213015945677882, -0.060593575951781484, -0.07167162584878309, -0.07637140459296558, -0.08207827878233005, -0.08342107270923933, -0.07821774624246586, -0.07435721370260165, -0.06898603799496453, -0.06327916380560006, -0.0528725108720531, -0.03172350652323186, -0.003189135576409552, 0.009231708247501335, 0.018631265735866327, 0.035751888303959714, 0.049515526054779886, 0.05857938506141757, 0.06697184710460058, 0.07234302281223774, 0.07704280155642022, 0.07737850003814756, 0.07335011825741969, 0.06932173647669183, 0.060761425192645144, 0.05337605859464408, 0.04078736552986953, 0.02333104448004883, 0.0025177386129549098, -0.01292439154650187, -0.024338139925230793, -0.03944457160296025, -0.054551003280689715, -0.06361486228732739, -0.07066453040360113, -0.0780498970016022, -0.08409246967269397, -0.08342107270923933, -0.07200732433051041, -0.06697184710460058, -0.06730754558632791, -0.058075837338826576, -0.04213015945677882, -0.02584878309300374, -0.008896009765774012, 0.004364080262455177, 0.017288471808957043, 0.029877164873731592, 0.04414435034714275, 0.05992217898832684, 0.07335011825741969, 0.08644235904478523, 0.08778515297169451, 0.07939269092851148, 0.06965743495841917, 0.06462195773250935, 0.06025787747005417, 0.05119401846341649, 0.03944457160296025, 0.024673838406958113, 0.0052033264667734795, -0.012252994583047227, -0.025009536888685433, -0.03407339589532311, -0.04061951628900587, -0.058915083543144876, -0.0767071030746929, -0.08342107270923933, -0.08476386663614863, -0.08543526359960325, -0.08308537422751203, -0.07838559548332952, -0.07066453040360113, -0.05790798809796292, -0.044480048828870064, -0.03205920500495917, -0.014602883955138474, 0.009567406729228655, 0.019302662699320974, 0.028030823224231328, 0.04313725490196078, 0.058915083543144876, 0.06697184710460058, 0.0703288319218738, 0.07737850003814756, 0.0800640878919661, 0.08073548485542076, 0.07704280155642022, 0.06260776684214542, 0.051529716945143814, 0.04917982757305257, 0.030045014114595252, 0.0055390249485008005, -0.012252994583047227, -0.02668802929732204, -0.03910887312123293, -0.049515526054779886, -0.058915083543144876, -0.06797894254978255, -0.07200732433051041, -0.07200732433051041, -0.06999313344014649, -0.06898603799496453, -0.05992217898832684, -0.060593575951781484, -0.06327916380560006, -0.053208209353780414, -0.03373769741359579, -0.015106431677729458, 0.0015106431677729458, 0.016617074845502403, 0.02937361715114061, 0.03927672236209659, 0.05337605859464408, 0.06562905317769131, 0.0750286106660563, 0.08577096208133059, 0.08543526359960325, 0.07637140459296558, 0.06663614862287326, 0.056900892652780956, 0.049515526054779886, 0.04313725490196078, 0.032730601968413826, 0.01560997940032044, -0.003860532539864194, -0.020309758144502935, -0.03675898374914168, -0.05119401846341649, -0.05488670176241703, -0.06630045014114595, -0.07939269092851148, -0.08845654993514916, -0.08946364538033112, -0.08476386663614863, -0.08073548485542076, -0.07402151522087433, -0.061936369878690785, -0.048508430609597926, -0.03440909437705043, -0.01896696421759365, 0.003860532539864194, 0.028702220187685965, 0.0379339284351873, 0.04145876249332417, 0.051529716945143814, 0.06428625925078202, 0.07301441977569237, 0.07570000762951096, 0.0775463492790112, 0.0800640878919661, 0.07637140459296558, 0.06697184710460058, 0.05656519417105363, 0.04515144579232471, 0.03675898374914168, 0.017959868772411687, -0.003860532539864194, -0.017624170290684367, -0.030380712596322572, -0.04515144579232471, -0.060593575951781484, -0.06865033951323721, -0.07335011825741969, -0.07939269092851148, -0.08509956511787593, -0.08140688181887541, -0.07469291218432898, -0.061936369878690785, -0.05656519417105363, -0.050186923018234526, -0.03776607919432364, -0.02400244144350347, -0.004196231021591517, 0.014602883955138474, 0.030045014114595252, 0.043472953383688104, 0.05354390783550774, 0.062272068360418105, 0.06697184710460058, 0.07553215838864728, 0.08627450980392155, 0.0797283894102388, 0.06697184710460058, 0.06210421911955444, 0.05824368657969024, 0.04649423971923399, 0.03172350652323186, 0.016449225604638743, 0.0005035477225909818, -0.014938582436865796, -0.03121995880064088, -0.0426337071793698, -0.05119401846341649, -0.05522240024414436, -0.06865033951323721, -0.08409246967269397, -0.09013504234378575, -0.0861066605630579, -0.07905699244678416, -0.06999313344014649, -0.05992217898832684, -0.04783703364614328, -0.03776607919432364, -0.02400244144350347, -0.0035248340581368735, 0.013931486991683832, 0.032730601968413826, 0.042801556420233464, 0.050186923018234526, 0.058915083543144876, 0.06831464103150987, 0.07620355535210192, 0.08039978637369342, 0.08207827878233005, 0.07872129396505684, 0.06680399786373693, 0.05488670176241703, 0.04682993820096131, 0.03860532539864195, 0.030045014114595252, 0.006546120393682764, -0.01896696421759365, -0.03608758678568704, -0.04649423971923399, -0.05656519417105363, -0.06932173647669183, -0.07872129396505684, -0.08090333409628443, -0.08358892195010299, -0.0844281681544213, -0.0797283894102388, -0.07150377660791943, -0.058075837338826576, -0.049851224536507206, -0.042801556420233464, -0.03105210955977722, -0.012252994583047227, 0.006546120393682764, 0.019638361181048294, 0.03440909437705043, 0.05085831998168917, 0.06294346532387274, 0.07100022888532845, 0.07771419851987486, 0.08241397726405737, 0.0891279468986038, 0.0800640878919661, 0.06764324406805522, 0.060593575951781484, 0.049515526054779886, 0.035416189822232394, 0.01896696421759365, 0.0015106431677729458, -0.01326009002822919, -0.0260166323338674, -0.041794460975051496, -0.059250782024872196, -0.07301441977569237, -0.07553215838864728, -0.0767071030746929, -0.08174258030060273, -0.08543526359960325, -0.08107118333714809, -0.07402151522087433, -0.06462195773250935, -0.05522240024414436, -0.043808651865415424, -0.029037918669413288, -0.009903105210955977, 0.008560311284046692, 0.027862973983367664, 0.049515526054779886, 0.057572289616235596, 0.06160067139696345, 0.07083237964446479, 0.07872129396505684, 0.08426031891355765, 0.08644235904478523, 0.07939269092851148, 0.06881818875410085, 0.05824368657969024, 0.0481727321278706, 0.035416189822232394, 0.019974059662775615, 0.00788891432059205, -0.009231708247501335, -0.027359426260776684, -0.04213015945677882, -0.05522240024414436, -0.06630045014114595, -0.07469291218432898, -0.07838559548332952, -0.08073548485542076, -0.08241397726405737, -0.08073548485542076, -0.07368581673914701, -0.06294346532387274, -0.04716563668268864, -0.0379339284351873, -0.02937361715114061, -0.01292439154650187, 0.008560311284046692, 0.026352330815594724, 0.03978027008468757, 0.048844129091325246, 0.05958648050659952, 0.07234302281223774, 0.07771419851987486, 0.0788891432059205, 0.08174258030060273, 0.0861066605630579, 0.0750286106660563, 0.060761425192645144, 0.04750133516441596, 0.0323949034866865, 0.017959868772411687, 0.0016784924086366065, -0.015106431677729458, -0.028366521705958644, -0.041123064011596856, -0.05555809872587166, -0.07016098268101013, -0.0780498970016022, -0.0750286106660563, -0.07939269092851148, -0.08509956511787593, -0.08375677119096665, -0.07536430914778362, -0.06462195773250935, -0.05522240024414436, -0.04649423971923399, -0.032730601968413826, -0.013931486991683832, 0.0035248340581368735, 0.017288471808957043, 0.03205920500495917, 0.05471885252155337, 0.06697184710460058, 0.07100022888532845, 0.07435721370260165, 0.08274967574578469, 0.08375677119096665, 0.07771419851987486, 0.07100022888532845, 0.06529335469596398, 0.05555809872587166, 0.042801556420233464, 0.030045014114595252, 0.014602883955138474, 0.001846341649500267, -0.01695277332722972, -0.03608758678568704, -0.050186923018234526, -0.062272068360418105, -0.07200732433051041, -0.07771419851987486, -0.0844281681544213, -0.08677805752651253, -0.08342107270923933, -0.0767071030746929, -0.06697184710460058, -0.05354390783550774, -0.03558403906309605, -0.025345235370412753, -0.017959868772411687, -0.003860532539864194, 0.014267185473411156, 0.032730601968413826, 0.050522621499961846, 0.06025787747005417, 0.06630045014114595, 0.06831464103150987, 0.0750286106660563, 0.07737850003814756, 0.07234302281223774, 0.06965743495841917, 0.05992217898832684, 0.049851224536507206, 0.03843747615777828, 0.02400244144350347, 0.00788891432059205, -0.009567406729228655, -0.02668802929732204, -0.04515144579232471, -0.055390249485008015, -0.06462195773250935, -0.07200732433051041, -0.0750286106660563, -0.07335011825741969, -0.0797283894102388, -0.08493171587701229, -0.0797283894102388, -0.06764324406805522, -0.058915083543144876, -0.04750133516441596, -0.030380712596322572, -0.011581597619592583, 0.003189135576409552, 0.017959868772411687, 0.03407339589532311, 0.050186923018234526, 0.06965743495841917, 0.07435721370260165, 0.07200732433051041, 0.07435721370260165, 0.07637140459296558, 0.07469291218432898, 0.07200732433051041, 0.06831464103150987, 0.06025787747005417, 0.0481727321278706, 0.033401998931868467, 0.014602883955138474, -0.0028534370946822307, -0.009063859006637675, -0.026352330815594724, -0.049851224536507206, -0.06730754558632791, -0.07603570611123828, -0.0797283894102388, -0.08207827878233005, -0.08207827878233005, -0.08073548485542076, -0.07838559548332952, -0.07133592736705577, -0.05874723430228122, -0.043808651865415424, -0.019638361181048294, -0.005874723430228122, 0.0016784924086366065, 0.012588693064774548, 0.033066300450141146, 0.051865415426871134, 0.06160067139696345, 0.06881818875410085, 0.07553215838864728, 0.08207827878233005, 0.08409246967269397, 0.08107118333714809, 0.0750286106660563, 0.0703288319218738, 0.05857938506141757, 0.04313725490196078, 0.02719157701991302, 0.011245899137865261, -0.005874723430228122, -0.02333104448004883, -0.03776607919432364, -0.048508430609597926, -0.061936369878690785, -0.07368581673914701, -0.07838559548332952, -0.07939269092851148, -0.07402151522087433, -0.07838559548332952, -0.08207827878233005, -0.07570000762951096, -0.06428625925078202, -0.051529716945143814, -0.03843747615777828, -0.021652552071412222, -0.003692683299000534, 0.008896009765774012, 0.02265964751659419, 0.041123064011596856, 0.05958648050659952, 0.07838559548332952, 0.07771419851987486, 0.07133592736705577, 0.074189364461738, 0.0780498970016022, 0.07351796749828336, 0.06361486228732739, 0.05522240024414436, 0.04615854123750667, 0.030045014114595252, 0.012252994583047227, -0.0052033264667734795, -0.01695277332722972, -0.020309758144502935, -0.03910887312123293, -0.061432822156099784, -0.07234302281223774, -0.0780498970016022, -0.0844281681544213, -0.09047074082551307, -0.08812085145342184, -0.0780498970016022, -0.06764324406805522, -0.060593575951781484, -0.05035477225909819, -0.033234149691004806, -0.008560311284046692, 0.004531929503318838, 0.010238803692683297, 0.02265964751659419, 0.0387731746395056, 0.04783703364614328, 0.05555809872587166, 0.06764324406805522, 0.07603570611123828, 0.07637140459296558, 0.07469291218432898, 0.07301441977569237, 0.07100022888532845, 0.0703288319218738, 0.058075837338826576, 0.03743038071259632, 0.019638361181048294, -0.001846341649500267, -0.020309758144502935, -0.03508049134050507, -0.048844129091325246, -0.06126497291523613, -0.07016098268101013, -0.0767071030746929, -0.08174258030060273, -0.08342107270923933, -0.07603570611123828, -0.07351796749828336, -0.07335011825741969, -0.06797894254978255, -0.05387960631723506, -0.03978027008468757, -0.026352330815594724, -0.009903105210955977, 0.009231708247501335, 0.027023727779049357, 0.042801556420233464, 0.05421530479896238, 0.06697184710460058, 0.08476386663614863, 0.08711375600823987, 0.07939269092851148, 0.0703288319218738, 0.06831464103150987, 0.06663614862287326, 0.06025787747005417, 0.050186923018234526, 0.035248340581368734, 0.017288471808957043, 0.0008392462043183033, -0.015106431677729458, -0.028366521705958644, -0.036423285267414354, -0.05119401846341649, -0.06898603799496453, -0.08207827878233005, -0.08744945448996719, -0.0861066605630579, -0.08241397726405737, -0.07603570611123828, -0.06529335469596398, -0.05656519417105363, -0.049851224536507206, -0.03961242084382391, -0.024673838406958113, 0.0015106431677729458, 0.021988250553139542, 0.030380712596322572, 0.03810177767605096, 0.05085831998168917, 0.06529335469596398, 0.07368581673914701, 0.07200732433051041, 0.07167162584878309, 0.0750286106660563, 0.07553215838864728, 0.07301441977569237, 0.06680399786373693, 0.06126497291523613, 0.040451667048142216, 0.01527428091859312, -0.00016784924086366064, -0.012252994583047227, -0.02887006942854963, -0.044480048828870064, -0.05824368657969024, -0.06932173647669183, -0.07435721370260165, -0.0797283894102388, -0.08476386663614863, -0.08476386663614863, -0.07267872129396505, -0.06730754558632791, -0.06562905317769131, -0.05522240024414436, -0.041794460975051496, -0.026352330815594724, -0.008560311284046692, 0.010238803692683297, 0.024338139925230793, 0.03474479285877775, 0.04548714427405204, 0.062272068360418105, 0.07838559548332952, 0.0891279468986038, 0.08358892195010299, 0.07368581673914701, 0.06630045014114595, 0.06025787747005417, 0.056900892652780956, 0.04750133516441596, 0.030716411078049892, 0.01376363775082017, -0.003189135576409552, -0.017624170290684367, -0.030045014114595252, -0.04213015945677882, -0.0473334859235523, -0.061936369878690785, -0.07335011825741969, -0.07737850003814756, -0.07956054016937514, -0.08174258030060273, -0.08023193713282978, -0.07301441977569237, -0.06562905317769131, -0.056061646448462656, -0.040451667048142216, -0.02265964751659419, -0.006210421911955443, 0.016617074845502403, 0.03205920500495917, 0.041794460975051496, 0.052201113908598454, 0.06260776684214542, 0.07100022888532845, 0.07771419851987486, 0.07838559548332952, 0.07570000762951096, 0.06831464103150987, 0.06327916380560006, 0.05656519417105363, 0.052201113908598454, 0.048844129091325246, 0.028702220187685965, 0.0055390249485008005, -0.01359578850995651, -0.027023727779049357, -0.03944457160296025, -0.05589379720759898, -0.06797894254978255, -0.07536430914778362, -0.07838559548332952, -0.08274967574578469, -0.0844281681544213, -0.07637140459296558, -0.060593575951781484, -0.05824368657969024, -0.05522240024414436, -0.044647898069733724, -0.0260166323338674, -0.008224612802319372, 0.0052033264667734795, 0.01594567788204776, 0.033401998931868467, 0.05085831998168917, 0.06025787747005417, 0.06529335469596398, 0.07637140459296558, 0.09147783627069504, 0.08845654993514916, 0.07603570611123828, 0.06462195773250935, 0.058915083543144876, 0.052201113908598454, 0.04011596856641489, 0.023834592202639806, 0.0023498893720912484, -0.014938582436865796, -0.025680933852140077, -0.03843747615777828, -0.048844129091325246, -0.053208209353780414, -0.06898603799496453, -0.08426031891355765, -0.08812085145342184, -0.08375677119096665, -0.0800640878919661, -0.0767071030746929, -0.06999313344014649, -0.057572289616235596, -0.044480048828870064, -0.0323949034866865, -0.018631265735866327, 0.0015106431677729458, 0.027695124742504008, 0.04011596856641489, 0.042801556420233464, 0.051865415426871134, 0.06428625925078202, 0.07570000762951096, 0.08241397726405737, 0.0797283894102388, 0.07351796749828336, 0.06865033951323721, 0.06160067139696345, 0.05085831998168917, 0.04145876249332417, 0.032730601968413826, 0.010574502174410621, -0.01359578850995651, -0.029709315632867935, -0.041794460975051496, -0.051529716945143814, -0.05857938506141757, -0.06999313344014649, -0.08039978637369342, -0.08509956511787593, -0.0882887006942855, -0.08677805752651253, -0.07402151522087433, -0.05555809872587166, -0.04917982757305257, -0.043808651865415424, -0.030045014114595252, -0.01359578850995651, 0.003692683299000534, 0.017120622568093383, 0.030380712596322572, 0.04682993820096131, 0.05874723430228122, 0.06764324406805522, 0.07771419851987486, 0.08812085145342184, 0.09416342412451362, 0.08375677119096665, 0.06831464103150987, 0.05824368657969024, 0.050690470740825506, 0.03810177767605096, 0.021988250553139542, 0.008560311284046692, -0.006881818875410085, -0.021652552071412222, -0.036423285267414354, -0.050019073777370866, -0.060593575951781484, -0.0639505607690547, -0.07267872129396505, -0.08090333409628443, -0.08543526359960325, -0.0800640878919661, -0.07200732433051041, -0.06260776684214542, -0.05656519417105363, -0.048508430609597926, -0.029709315632867935, -0.010574502174410621, 0.006546120393682764, 0.02366674296177615, 0.04515144579232471, 0.05354390783550774, 0.054551003280689715, 0.05958648050659952, 0.06764324406805522, 0.07469291218432898, 0.07905699244678416, 0.07737850003814756, 0.07100022888532845, 0.06260776684214542, 0.051361867704280154, 0.036423285267414354, 0.025345235370412753, 0.017959868772411687, -0.0023498893720912484, -0.024338139925230793, -0.041794460975051496, -0.05790798809796292, -0.06797894254978255, -0.07335011825741969, -0.07872129396505684, -0.08241397726405737, -0.08140688181887541, -0.07737850003814756, -0.07167162584878309, -0.061936369878690785, -0.04666208896009766, -0.041794460975051496, -0.03608758678568704, -0.021988250553139542, 0.0021820401312275884, 0.02333104448004883, 0.03675898374914168, 0.049515526054779886, 0.05857938506141757, 0.06562905317769131, 0.07100022888532845, 0.07301441977569237, 0.07771419851987486, 0.08308537422751203, 0.07301441977569237, 0.05958648050659952, 0.048844129091325246, 0.03675898374914168, 0.025345235370412753, 0.009231708247501335, -0.009567406729228655, -0.02366674296177615, -0.033066300450141146, -0.04414435034714275, -0.058075837338826576, -0.06831464103150987, -0.06764324406805522, -0.0750286106660563, -0.08476386663614863, -0.08207827878233005, -0.07133592736705577, -0.06730754558632791, -0.06092927443350881, -0.04917982757305257, -0.03608758678568704, -0.020309758144502935, -0.004531929503318838, 0.009231708247501335, 0.028030823224231328, 0.050522621499961846, 0.054551003280689715, 0.057572289616235596, 0.06613260090028229, 0.07335011825741969, 0.07771419851987486, 0.07704280155642022, 0.07066453040360113, 0.06327916380560006, 0.05471885252155337, 0.04800488288700694, 0.03675898374914168, 0.02265964751659419, 0.010238803692683297, -0.011581597619592583, -0.032730601968413826, -0.04313725490196078, -0.051529716945143814, -0.06663614862287326, -0.07872129396505684, -0.0844281681544213, -0.0861066605630579, -0.0852674143587396, -0.08073548485542076, -0.07200732433051041, -0.058915083543144876, -0.042465857938506144, -0.03407339589532311, -0.02333104448004883, -0.004531929503318838, 0.014938582436865796, 0.02937361715114061, 0.04145876249332417, 0.0520332646677348, 0.06092927443350881, 0.06915388723582817, 0.0750286106660563, 0.0800640878919661, 0.08308537422751203, 0.08543526359960325, 0.07234302281223774, 0.05656519417105363, 0.04615854123750667, 0.03508049134050507, 0.019638361181048294, -0.0021820401312275884, -0.018631265735866327, -0.029037918669413288, -0.041794460975051496, -0.05790798809796292, -0.07267872129396505, -0.07838559548332952, -0.07301441977569237, -0.0797283894102388, -0.08677805752651253, -0.08073548485542076, -0.06865033951323721, -0.05857938506141757, -0.048508430609597926, -0.03843747615777828, -0.025177386129549097, -0.009735255970092317, 0.007217517357137408, 0.027359426260776684, 0.044815747310597384, 0.05958648050659952, 0.06327916380560006, 0.06613260090028229, 0.07335011825741969, 0.07905699244678416, 0.08123903257801174, 0.07771419851987486, 0.06831464103150987, 0.06160067139696345, 0.05522240024414436, 0.03843747615777828, 0.017959868772411687, 0.0025177386129549098, -0.0052033264667734795, -0.022491798275730522, -0.04313725490196078, -0.05790798809796292, -0.06663614862287326, -0.07301441977569237, -0.07905699244678416, -0.08493171587701229, -0.08677805752651253, -0.08291752498664834, -0.0750286106660563, -0.06529335469596398, -0.05253681239032577, -0.03172350652323186, -0.022995345998321506, -0.01896696421759365, -0.0055390249485008005, 0.016617074845502403, 0.0387731746395056, 0.051865415426871134, 0.05656519417105363, 0.06294346532387274, 0.0694895857175555, 0.07335011825741969, 0.07637140459296558, 0.07737850003814756, 0.07637140459296558, 0.064789806973373, 0.048844129091325246, 0.03373769741359579, 0.021149004348821242, 0.0052033264667734795, -0.014938582436865796, -0.03172350652323186, -0.044480048828870064, -0.05522240024414436, -0.06663614862287326, -0.07704280155642022, -0.07838559548332952, -0.07133592736705577, -0.0780498970016022, -0.08207827878233005, -0.07351796749828336, -0.06327916380560006, -0.05656519417105363, -0.04313725490196078, -0.025009536888685433, -0.009063859006637675, 0.005874723430228122, 0.019974059662775615, 0.03440909437705043, 0.052201113908598454, 0.07200732433051041, 0.0797283894102388, 0.0797283894102388, 0.07704280155642022, 0.07704280155642022, 0.07737850003814756, 0.07301441977569237, 0.06092927443350881, 0.04716563668268864, 0.035751888303959714, 0.02333104448004883, 0.006546120393682764, -0.004867627985046159, -0.012588693064774548, -0.036423285267414354, -0.060593575951781484, -0.07284657053482871, -0.07771419851987486, -0.08140688181887541, -0.0780498970016022, -0.0758678568703746, -0.07469291218432898, -0.06865033951323721, -0.060593575951781484, -0.05522240024414436, -0.043472953383688104, -0.020309758144502935, -0.0055390249485008005, 0.0030212863355458916, 0.01594567788204776, 0.03256275272755016, 0.04615854123750667, 0.05824368657969024, 0.06965743495841917, 0.07603570611123828, 0.0797283894102388, 0.07905699244678416, 0.07435721370260165, 0.06831464103150987, 0.06596475165941862, 0.05740444037537193, 0.04129091325246051, 0.020645456626230255, 0.0005035477225909818, -0.014938582436865796, -0.025680933852140077, -0.03860532539864195, -0.05085831998168917, -0.062272068360418105, -0.07133592736705577, -0.07704280155642022, -0.08073548485542076, -0.07335011825741969, -0.07133592736705577, -0.07435721370260165, -0.07267872129396505, -0.06327916380560006, -0.049515526054779886, -0.0323949034866865, -0.01292439154650187, 0.004531929503318838, 0.019974059662775615, 0.033401998931868467, 0.04750133516441596, 0.06160067139696345, 0.0750286106660563, 0.0780498970016022, 0.07956054016937514, 0.0800640878919661, 0.07570000762951096, 0.06697184710460058, 0.05387960631723506, 0.04414435034714275, 0.035416189822232394, 0.02333104448004883, 0.010574502174410621, -0.0010070954451819635, -0.014435034714274816, -0.0260166323338674, -0.04582284275577936, -0.06260776684214542, -0.07267872129396505, -0.0800640878919661, -0.08207827878233005, -0.08409246967269397, -0.08577096208133059, -0.07956054016937514, -0.06932173647669183, -0.06092927443350881, -0.04615854123750667, -0.026352330815594724, -0.0025177386129549098, 0.010574502174410621, 0.017959868772411687, 0.030045014114595252, 0.043472953383688104, 0.05354390783550774, 0.061432822156099784, 0.06898603799496453, 0.07704280155642022, 0.08174258030060273, 0.07737850003814756, 0.06797894254978255, 0.06428625925078202, 0.06697184710460058, 0.05253681239032577, 0.027359426260776684, 0.008560311284046692, -0.004867627985046159, -0.020309758144502935, -0.035751888303959714, -0.04666208896009766, -0.059250782024872196, -0.07335011825741969, -0.08107118333714809, -0.08342107270923933, -0.08308537422751203, -0.07637140459296558, -0.0767071030746929, -0.07335011825741969, -0.06529335469596398, -0.051529716945143814, -0.03508049134050507, -0.017792019531548024, -0.00016784924086366064, 0.016617074845502403, 0.0323949034866865, 0.043472953383688104, 0.0528725108720531, 0.0703288319218738, 0.08778515297169451, 0.08845654993514916, 0.08375677119096665, 0.07737850003814756, 0.0703288319218738, 0.06092927443350881, 0.051529716945143814, 0.042465857938506144, 0.03105210955977722, 0.01594567788204776, -0.004531929503318838, -0.024338139925230793, -0.035751888303959714, -0.041962310215915156, -0.059250782024872196, -0.0780498970016022, -0.08375677119096665, -0.08274967574578469, -0.08073548485542076, -0.0767071030746929, -0.0703288319218738, -0.06260776684214542, -0.057572289616235596, -0.052201113908598454, -0.03474479285877775, -0.010070954451819639, 0.014602883955138474, 0.02333104448004883, 0.030045014114595252, 0.042465857938506144, 0.054047455558098714, 0.06562905317769131, 0.07637140459296558, 0.07771419851987486, 0.07771419851987486, 0.0750286106660563, 0.06898603799496453, 0.06260776684214542, 0.056061646448462656, 0.05119401846341649, 0.03407339589532311, 0.012252994583047227, -0.006881818875410085, -0.01896696421759365, -0.032730601968413826, -0.04917982757305257, -0.062272068360418105, -0.07267872129396505, -0.07939269092851148, -0.08274967574578469, -0.0861066605630579, -0.08207827878233005, -0.06663614862287326, -0.06126497291523613, -0.06092927443350881, -0.05555809872587166, -0.042801556420233464, -0.02333104448004883, -0.004699778744182497, 0.00788891432059205, 0.02366674296177615, 0.03743038071259632, 0.04750133516441596, 0.05857938506141757, 0.07234302281223774, 0.0861066605630579, 0.08543526359960325, 0.07737850003814756, 0.07167162584878309, 0.06630045014114595, 0.05656519417105363, 0.044815747310597384, 0.03105210955977722, 0.016617074845502403, 0.00016784924086366064, -0.014938582436865796, -0.028366521705958644, -0.04011596856641489, -0.049851224536507206, -0.06596475165941862, -0.0767071030746929, -0.08073548485542076, -0.08241397726405737, -0.08274967574578469, -0.07570000762951096, -0.06630045014114595, -0.058915083543144876, -0.048508430609597926, -0.0379339284351873, -0.024338139925230793, -0.0008392462043183033, 0.0260166323338674, 0.03205920500495917, 0.033066300450141146, 0.04783703364614328, 0.06495765621423667, 0.07267872129396505, 0.0750286106660563, 0.07905699244678416, 0.0775463492790112, 0.07100022888532845, 0.06294346532387274, 0.05421530479896238, 0.04783703364614328, 0.04213015945677882, 0.02400244144350347, -0.0010070954451819635, -0.01896696421759365, -0.030380712596322572, -0.04313725490196078, -0.05656519417105363, -0.06596475165941862, -0.07570000762951096, -0.08140688181887541, -0.08224612802319371, -0.07737850003814756, -0.07200732433051041, -0.06126497291523613, -0.054551003280689715, -0.05253681239032577, -0.04313725490196078, -0.022995345998321506, -0.0035248340581368735, 0.010574502174410621, 0.0213168535896849, 0.035751888303959714, 0.050186923018234526, 0.060593575951781484, 0.0694895857175555, 0.07771419851987486, 0.08694590676737621, 0.08241397726405737, 0.07234302281223774, 0.0639505607690547, 0.05622949568932631, 0.04750133516441596, 0.03474479285877775, 0.019302662699320974, 0.0005035477225909818, -0.017288471808957043, -0.029709315632867935, -0.04313725490196078, -0.056061646448462656, -0.06025787747005417, -0.07150377660791943, -0.0844281681544213, -0.08812085145342184, -0.08476386663614863, -0.08174258030060273, -0.07620355535210192, -0.06160067139696345, -0.050019073777370866, -0.042465857938506144, -0.028366521705958644, -0.008560311284046692, 0.010238803692683297, 0.030380712596322572, 0.04095521477073319, 0.04548714427405204, 0.054551003280689715, 0.06428625925078202, 0.07335011825741969, 0.07838559548332952, 0.07704280155642022, 0.07133592736705577, 0.06764324406805522, 0.05874723430228122, 0.04582284275577936, 0.032898451209277486, 0.027695124742504008, 0.01292439154650187, -0.007553215838864729, -0.0260166323338674, -0.04078736552986953, -0.05387960631723506, -0.06596475165941862, -0.07267872129396505, -0.0780498970016022, -0.08291752498664834, -0.0861066605630579, -0.08342107270923933, -0.07536430914778362, -0.05622949568932631, -0.04783703364614328, -0.042465857938506144, -0.025680933852140077, -0.004531929503318838, 0.012420843823910887, 0.02333104448004883, 0.03407339589532311, 0.04682993820096131, 0.062272068360418105, 0.07435721370260165, 0.08207827878233005, 0.08711375600823987, 0.08896009765774013, 0.07771419851987486, 0.06562905317769131, 0.06025787747005417, 0.05656519417105363, 0.04414435034714275, 0.02400244144350347, 0.003189135576409552, -0.012252994583047227, -0.024338139925230793, -0.040451667048142216, -0.05824368657969024, -0.06865033951323721, -0.06797894254978255, -0.07335011825741969, -0.08207827878233005, -0.08509956511787593, -0.08308537422751203, -0.0780498970016022, -0.06730754558632791, -0.05589379720759898, -0.04515144579232471, -0.0323949034866865, -0.01527428091859312, 0.003860532539864194, 0.0213168535896849, 0.04145876249332417, 0.0528725108720531, 0.06092927443350881, 0.06831464103150987, 0.07200732433051041, 0.0750286106660563, 0.0780498970016022, 0.07838559548332952, 0.07234302281223774, 0.05790798809796292, 0.04515144579232471, 0.030716411078049892, 0.01896696421759365, 0.009903105210955977, -0.007049668116273747, -0.027695124742504008, -0.043808651865415424, -0.05387960631723506, -0.06294346532387274, -0.07133592736705577, -0.07536430914778362, -0.07939269092851148, -0.08342107270923933, -0.07956054016937514, -0.06764324406805522, -0.057236591134508276, -0.04582284275577936, -0.03776607919432364, -0.028702220187685965, -0.01560997940032044, 0.0021820401312275884, 0.016617074845502403, 0.03138780804150454, 0.044480048828870064, 0.054551003280689715, 0.06697184710460058, 0.07536430914778362, 0.07872129396505684, 0.08140688181887541, 0.08661020828564889, 0.07435721370260165, 0.057572289616235596, 0.04682993820096131, 0.04078736552986953, 0.029037918669413288, 0.008392462043183033, -0.009903105210955977, -0.02719157701991302, -0.04078736552986953, -0.051529716945143814, -0.06210421911955444, -0.06932173647669183, -0.06596475165941862, -0.0703288319218738, -0.07939269092851148, -0.08073548485542076, -0.07301441977569237, -0.062272068360418105, -0.05387960631723506, -0.04531929503318838, -0.03172350652323186, -0.01292439154650187, 0.004531929503318838, 0.020981155107957578, 0.037094682230869, 0.053208209353780414, 0.06025787747005417, 0.06546120393682765, 0.07234302281223774, 0.0767071030746929, 0.07939269092851148, 0.07637140459296558, 0.06932173647669183, 0.06294346532387274, 0.053208209353780414, 0.03944457160296025, 0.02333104448004883, 0.008560311284046692, -0.0023498893720912484, -0.019638361181048294, -0.03675898374914168, -0.0528725108720531, -0.06495765621423667, -0.07016098268101013, -0.07267872129396505, -0.07737850003814756, -0.08241397726405737, -0.08140688181887541, -0.07335011825741969, -0.06260776684214542, -0.05119401846341649, -0.03675898374914168, -0.03172350652323186, -0.02400244144350347, -0.007217517357137408, 0.008560311284046692, 0.020477607385366595, 0.033401998931868467, 0.051361867704280154, 0.06428625925078202, 0.06865033951323721, 0.07234302281223774, 0.07570000762951096, 0.0797283894102388, 0.08207827878233005, 0.0639505607690547, 0.04682993820096131, 0.04145876249332417, 0.03205920500495917, 0.01594567788204776, -0.0003356984817273213, -0.014267185473411156, -0.02853437094682231, -0.04213015945677882, -0.05589379720759898, -0.06865033951323721, -0.07335011825741969, -0.0703288319218738, -0.07939269092851148, -0.08476386663614863, -0.0767071030746929, -0.06546120393682765, -0.057236591134508276, -0.04649423971923399, -0.03205920500495917, -0.01695277332722972, -0.0011749446860456242, 0.01560997940032044, 0.033066300450141146, 0.049515526054779886, 0.06663614862287326, 0.06831464103150987, 0.06529335469596398, 0.07133592736705577, 0.07536430914778362, 0.07234302281223774, 0.06764324406805522, 0.06277561608300908, 0.054551003280689715, 0.042801556420233464, 0.030045014114595252, 0.01326009002822919, -0.0035248340581368735, -0.011581597619592583, -0.0315556572823682, -0.055390249485008015, -0.06932173647669183, -0.0750286106660563, -0.0767071030746929, -0.08073548485542076, -0.08476386663614863, -0.0861066605630579, -0.08140688181887541, -0.07133592736705577, -0.06260776684214542, -0.048508430609597926, -0.025680933852140077, -0.01359578850995651, -0.004867627985046159, 0.011917296101319903, 0.02937361715114061, 0.042801556420233464, 0.05622949568932631, 0.06831464103150987, 0.0750286106660563, 0.08039978637369342, 0.08560311284046693, 0.0797283894102388, 0.07351796749828336, 0.07301441977569237, 0.06361486228732739, 0.048508430609597926, 0.03172350652323186, 0.014602883955138474, -0.0055390249485008005, -0.021652552071412222, -0.03508049134050507, -0.050019073777370866, -0.06294346532387274, -0.07100022888532845, -0.07737850003814756, -0.0797283894102388, -0.07402151522087433, -0.07335011825741969, -0.07452506294346531, -0.07267872129396505, -0.06697184710460058, -0.05857938506141757, -0.042801556420233464, -0.02400244144350347, -0.008896009765774012, 0.006546120393682764, 0.025009536888685433, 0.041123064011596856, 0.05656519417105363, 0.07368581673914701, 0.07570000762951096, 0.07368581673914701, 0.07570000762951096, 0.07939269092851148, 0.07637140459296558, 0.0639505607690547, 0.05488670176241703, 0.049515526054779886, 0.03743038071259632, 0.019974059662775615, 0.004867627985046159, -0.006210421911955443, -0.01628137636377508, -0.03776607919432364, -0.057236591134508276, -0.06831464103150987, -0.07335011825741969, -0.07838559548332952, -0.08342107270923933, -0.08274967574578469, -0.08039978637369342, -0.07603570611123828, -0.06865033951323721, -0.05522240024414436, -0.035751888303959714, -0.01326009002822919, 0.0005035477225909818, 0.006546120393682764, 0.01829556725413901, 0.033401998931868467, 0.04649423971923399, 0.058915083543144876, 0.07100022888532845, 0.07821774624246586, 0.0800640878919661, 0.0797283894102388, 0.0780498970016022, 0.07234302281223774, 0.06764324406805522, 0.05119401846341649, 0.03138780804150454, 0.018631265735866327, 0.004531929503318838, -0.009903105210955977, -0.024673838406958113, -0.040451667048142216, -0.05656519417105363, -0.07167162584878309, -0.07939269092851148, -0.08291752498664834, -0.08342107270923933, -0.07637140459296558, -0.07737850003814756, -0.07838559548332952, -0.06697184710460058, -0.05253681239032577, -0.03860532539864195, -0.020981155107957578, -0.0052033264667734795, 0.00788891432059205, 0.021820401312275882, 0.036423285267414354, 0.051361867704280154, 0.06596475165941862, 0.08090333409628443, 0.08308537422751203, 0.08107118333714809, 0.0788891432059205, 0.07100022888532845, 0.06327916380560006, 0.05790798809796292, 0.05085831998168917, 0.03776607919432364, 0.016617074845502403, -0.0005035477225909818, -0.01292439154650187, -0.028030823224231328, -0.03910887312123293, -0.05522240024414436, -0.07066453040360113, -0.08123903257801174, -0.08644235904478523, -0.0891279468986038, -0.08845654993514916, -0.08174258030060273, -0.07167162584878309, -0.06294346532387274, -0.051865415426871134, -0.036423285267414354, -0.01628137636377508, 0.008224612802319372, 0.01560997940032044, 0.019302662699320974, 0.033066300450141146, 0.048844129091325246, 0.06160067139696345, 0.06797894254978255, 0.07368581673914701, 0.08039978637369342, 0.08241397726405737, 0.07737850003814756, 0.0703288319218738, 0.06630045014114595, 0.06596475165941862, 0.0481727321278706, 0.025345235370412753, 0.010238803692683297, -0.006546120393682764, -0.024338139925230793, -0.03826962691691462, -0.05119401846341649, -0.06529335469596398, -0.0750286106660563, -0.07939269092851148, -0.08677805752651253, -0.08812085145342184, -0.07603570611123828, -0.07267872129396505, -0.06898603799496453, -0.05857938506141757, -0.042465857938506144, -0.024338139925230793, -0.011245899137865261, 0.0016784924086366065, 0.019974059662775615, 0.03910887312123293, 0.050522621499961846, 0.05656519417105363, 0.06898603799496453, 0.08644235904478523, 0.08778515297169451, 0.07603570611123828, 0.06697184710460058, 0.061936369878690785, 0.05622949568932631, 0.0481727321278706, 0.036423285267414354, 0.020477607385366595, -0.00016784924086366064, -0.01695277332722972, -0.03189135576409552, -0.04213015945677882, -0.04582284275577936, -0.05992217898832684, -0.07872129396505684, -0.08644235904478523, -0.0861066605630579, -0.08375677119096665, -0.07737850003814756, -0.07133592736705577, -0.0639505607690547, -0.05387960631723506, -0.040451667048142216, -0.02937361715114061, -0.014267185473411156, 0.011245899137865261, 0.02366674296177615, 0.030045014114595252, 0.044815747310597384, 0.057572289616235596, 0.06797894254978255, 0.0788891432059205, 0.08308537422751203, 0.07905699244678416, 0.07368581673914701, 0.0703288319218738, 0.06596475165941862, 0.05824368657969024, 0.04917982757305257, 0.029877164873731592, 0.003860532539864194, -0.014938582436865796, -0.025680933852140077, -0.03407339589532311, -0.04682993820096131, -0.061936369878690785, -0.07335011825741969, -0.07737850003814756, -0.08073548485542076, -0.08409246967269397, -0.0797283894102388, -0.06546120393682765, -0.061936369878690785, -0.06462195773250935, -0.059250782024872196, -0.043472953383688104, -0.024338139925230793, -0.006378271152819104, 0.01292439154650187, 0.030716411078049892, 0.042801556420233464, 0.056900892652780956, 0.07234302281223774, 0.08107118333714809, 0.09047074082551307, 0.08778515297169451, 0.07905699244678416, 0.06965743495841917, 0.058915083543144876, 0.052201113908598454, 0.04548714427405204, 0.0323949034866865, 0.01326009002822919, -0.00788891432059205, -0.025009536888685433, -0.03776607919432364, -0.0473334859235523, -0.05387960631723506, -0.06462195773250935, -0.07167162584878309, -0.07603570611123828, -0.07872129396505684, -0.07872129396505684, -0.07570000762951096, -0.06999313344014649, -0.05790798809796292, -0.04649423971923399, -0.032730601968413826, -0.01628137636377508, -0.0003356984817273213, 0.020981155107957578, 0.035416189822232394, 0.04414435034714275, 0.05119401846341649, 0.06294346532387274, 0.0750286106660563, 0.08274967574578469, 0.08107118333714809, 0.07737850003814756, 0.07301441977569237, 0.06495765621423667, 0.05555809872587166, 0.04213015945677882, 0.03189135576409552, 0.012588693064774548, -0.006881818875410085, -0.01829556725413901, -0.029877164873731592, -0.043472953383688104, -0.056900892652780956, -0.06730754558632791, -0.07435721370260165, -0.07905699244678416, -0.08107118333714809, -0.0800640878919661, -0.07536430914778362, -0.06126497291523613, -0.05421530479896238, -0.048508430609597926, -0.037094682230869, -0.020981155107957578, -0.003189135576409552, 0.010574502174410621, 0.024673838406958113, 0.041794460975051496, 0.056900892652780956, 0.06898603799496453, 0.07570000762951096, 0.08039978637369342, 0.08812085145342184, 0.08174258030060273, 0.06764324406805522, 0.06025787747005417, 0.05421530479896238, 0.043808651865415424, 0.029037918669413288, 0.011245899137865261, -0.004364080262455177, -0.01829556725413901, -0.03440909437705043, -0.05119401846341649, -0.06361486228732739, -0.06663614862287326, -0.07704280155642022, -0.08560311284046693, -0.08543526359960325, -0.07905699244678416, -0.07335011825741969, -0.06797894254978255, -0.05992217898832684, -0.04716563668268864, -0.033066300450141146, -0.01695277332722972, 0.0015106431677729458, 0.019974059662775615, 0.04061951628900587, 0.04548714427405204, 0.04716563668268864, 0.06160067139696345, 0.07469291218432898, 0.07637140459296558, 0.07435721370260165, 0.07200732433051041, 0.06932173647669183, 0.06529335469596398, 0.05958648050659952, 0.048508430609597926, 0.03474479285877775, 0.02400244144350347, 0.0023498893720912484, -0.01829556725413901, -0.03105210955977722, -0.043472953383688104, -0.059250782024872196, -0.06764324406805522, -0.07402151522087433, -0.08207827878233005, -0.0891279468986038, -0.08963149462119477, -0.08140688181887541, -0.06730754558632791, -0.051865415426871134, -0.04582284275577936, -0.03910887312123293, -0.024338139925230793, -0.004196231021591517, 0.012252994583047227, 0.026352330815594724, 0.040451667048142216, 0.05085831998168917, 0.06160067139696345, 0.07083237964446479, 0.07939269092851148, 0.08274967574578469, 0.08274967574578469, 0.07100022888532845, 0.05824368657969024, 0.05354390783550774, 0.0481727321278706, 0.033401998931868467, 0.01527428091859312, -0.0028534370946822307, -0.01829556725413901, -0.03440909437705043, -0.05119401846341649, -0.06596475165941862, -0.07167162584878309, -0.07016098268101013, -0.07771419851987486, -0.08543526359960325, -0.08409246967269397, -0.0767071030746929, -0.06730754558632791, -0.06126497291523613, -0.050522621499961846, -0.037262531471732654, -0.021652552071412222, -0.006546120393682764, 0.007217517357137408, 0.02719157701991302, 0.051865415426871134, 0.062272068360418105, 0.06361486228732739, 0.07234302281223774, 0.08375677119096665, 0.08577096208133059, 0.08090333409628443, 0.07435721370260165, 0.06697184710460058, 0.062272068360418105, 0.05488670176241703, 0.0387731746395056, 0.0213168535896849, 0.012588693064774548, -0.006378271152819104, -0.028702220187685965, -0.04917982757305257, -0.06562905317769131, -0.07284657053482871, -0.07402151522087433, -0.0797283894102388, -0.08476386663614863, -0.08342107270923933, -0.08023193713282978, -0.07469291218432898, -0.06109712367437248, -0.041123064011596856, -0.03138780804150454, -0.025009536888685433, -0.011581597619592583, 0.007217517357137408, 0.025009536888685433, 0.04078736552986953, 0.05387960631723506, 0.06764324406805522, 0.07335011825741969, 0.07351796749828336, 0.074189364461738, 0.07905699244678416, 0.08476386663614863, 0.07100022888532845, 0.057572289616235596, 0.04917982757305257, 0.03474479285877775, 0.01527428091859312, -0.0015106431677729458, -0.019638361181048294, -0.03843747615777828, -0.054047455558098714, -0.06327916380560006, -0.06730754558632791, -0.07100022888532845, -0.07267872129396505, -0.08409246967269397, -0.08677805752651253, -0.08107118333714809, -0.07536430914778362, -0.06462195773250935, -0.050690470740825506, -0.03843747615777828, -0.022491798275730522, -0.0050354772259098195, 0.010238803692683297, 0.025009536888685433, 0.04145876249332417, 0.06092927443350881, 0.06697184710460058, 0.06881818875410085, 0.07435721370260165, 0.07956054016937514, 0.07939269092851148, 0.07335011825741969, 0.06697184710460058, 0.060761425192645144, 0.051865415426871134, 0.03675898374914168, 0.0157778286411841, -0.0021820401312275884, -0.011078049897001601, -0.025177386129549097, -0.04582284275577936, -0.05992217898832684, -0.06630045014114595, -0.07301441977569237, -0.0780498970016022, -0.08107118333714809, -0.07939269092851148, -0.07536430914778362, -0.06932173647669183, -0.061936369878690785, -0.048508430609597926, -0.027695124742504008, -0.01896696421759365, -0.011245899137865261, 0.0011749446860456242, 0.01560997940032044, 0.03440909437705043, 0.05119401846341649, 0.06260776684214542, 0.0694895857175555, 0.07167162584878309, 0.07368581673914701, 0.07553215838864728, 0.07603570611123828, 0.07536430914778362, 0.06361486228732739, 0.049515526054779886, 0.035751888303959714, 0.021149004348821242, 0.003860532539864194, -0.009567406729228655, -0.025680933852140077, -0.04716563668268864, -0.06260776684214542, -0.06697184710460058, -0.06462195773250935, -0.06411841000991834, -0.06596475165941862, -0.07570000762951096, -0.08207827878233005, -0.07435721370260165, -0.06260776684214542, -0.05421530479896238, -0.044480048828870064, -0.033066300450141146, -0.01695277332722972, 0.003692683299000534, 0.017288471808957043, 0.028702220187685965, 0.044815747310597384, 0.06344701304646372, 0.06999313344014649, 0.07167162584878309, 0.07737850003814756, 0.08241397726405737, 0.08039978637369342, 0.07217517357137408, 0.060593575951781484, 0.052201113908598454, 0.042465857938506144, 0.027359426260776684, 0.009231708247501335, -0.004196231021591517, -0.009903105210955977, -0.03138780804150454, -0.053208209353780414, -0.06529335469596398, -0.07351796749828336, -0.0767071030746929, -0.08157473105973906, -0.08677805752651253, -0.08308537422751203, -0.07335011825741969, -0.06294346532387274, -0.05790798809796292, -0.04582284275577936, -0.021149004348821242, -0.007049668116273747, -0.00016784924086366064, 0.011245899137865261, 0.029037918669413288, 0.04649423971923399, 0.06294346532387274, 0.07066453040360113, 0.06797894254978255, 0.06814679179064621, 0.07100022888532845, 0.06999313344014649, 0.06663614862287326, 0.06680399786373693, 0.057236591134508276, 0.04078736552986953, 0.02668802929732204, 0.008896009765774012, -0.006210421911955443, -0.020309758144502935, -0.03843747615777828, -0.051865415426871134, -0.06126497291523613, -0.06663614862287326, -0.07133592736705577, -0.07704280155642022, -0.07536430914778362, -0.07435721370260165, -0.06932173647669183, -0.06462195773250935, -0.05992217898832684, -0.050522621499961846, -0.03407339589532311, -0.0157778286411841, -0.0015106431677729458, 0.01292439154650187, 0.03172350652323186, 0.04800488288700694, 0.06160067139696345, 0.0780498970016022, 0.0797283894102388, 0.07435721370260165, 0.07469291218432898, 0.07486076142519264, 0.0703288319218738, 0.062272068360418105, 0.04917982757305257, 0.03743038071259632, 0.02400244144350347, 0.011078049897001601, -0.0015106431677729458, -0.01292439154650187, -0.024338139925230793, -0.043976501106279084, -0.061432822156099784, -0.07351796749828336, -0.08140688181887541, -0.08291752498664834, -0.0800640878919661, -0.07737850003814756, -0.07603570611123828, -0.07267872129396505, -0.06529335469596398, -0.048508430609597926, -0.025177386129549097, -0.0028534370946822307, 0.006378271152819104, 0.013931486991683832, 0.030716411078049892, 0.0481727321278706, 0.06160067139696345, 0.07167162584878309, 0.0750286106660563, 0.07486076142519264, 0.07553215838864728, 0.07267872129396505, 0.06965743495841917, 0.06260776684214542, 0.05992217898832684, 0.049515526054779886, 0.030045014114595252, 0.009903105210955977, -0.004196231021591517, -0.01829556725413901, -0.033066300450141146, -0.04716563668268864, -0.05589379720759898, -0.0639505607690547, -0.07267872129396505, -0.0775463492790112, -0.07838559548332952, -0.07016098268101013, -0.07133592736705577, -0.07486076142519264, -0.06865033951323721, -0.05253681239032577, -0.035751888303959714, -0.020309758144502935, -0.004196231021591517, 0.010574502174410621, 0.025009536888685433, 0.03843747615777828, 0.050186923018234526, 0.06025787747005417, 0.07335011825741969, 0.0767071030746929, 0.07603570611123828, 0.07872129396505684, 0.07771419851987486, 0.06932173647669183, 0.05824368657969024, 0.04078736552986953, 0.02349889372091249, 0.010406652933546959, -0.004531929503318838, -0.01829556725413901, -0.03205920500495917, -0.04145876249332417, -0.060593575951781484, -0.07435721370260165, -0.07905699244678416, -0.08409246967269397, -0.08560311284046693, -0.08140688181887541, -0.07704280155642022, -0.07267872129396505, -0.06596475165941862, -0.05522240024414436, -0.036423285267414354, -0.014938582436865796, 0.007217517357137408, 0.01594567788204776, 0.02333104448004883, 0.03843747615777828, 0.056061646448462656, 0.06663614862287326, 0.07267872129396505, 0.07905699244678416, 0.0844281681544213, 0.08509956511787593, 0.07821774624246586, 0.06562905317769131, 0.05740444037537193, 0.05354390783550774, 0.03474479285877775, 0.010574502174410621, -0.0035248340581368735, -0.01594567788204776, -0.03138780804150454, -0.04649423971923399, -0.05857938506141757, -0.06730754558632791, -0.07351796749828336, -0.07939269092851148, -0.08476386663614863, -0.08375677119096665, -0.07435721370260165, -0.06797894254978255, -0.060593575951781484, -0.051865415426871134, -0.04011596856641489, -0.027695124742504008, -0.006881818875410085, 0.01527428091859312, 0.03138780804150454, 0.041794460975051496, 0.05488670176241703, 0.06294346532387274, 0.06965743495841917, 0.08274967574578469, 0.08274967574578469, 0.07637140459296558, 0.07167162584878309, 0.06562905317769131, 0.05790798809796292, 0.043472953383688104, 0.028030823224231328, 0.01628137636377508, 0.003189135576409552, -0.014435034714274816, -0.028366521705958644, -0.03978027008468757, -0.04515144579232471, -0.060761425192645144, -0.07838559548332952, -0.08342107270923933, -0.08207827878233005, -0.08073548485542076, -0.08039978637369342, -0.07200732433051041, -0.05857938506141757, -0.04750133516441596, -0.04061951628900587, -0.029037918669413288, -0.006210421911955443, 0.019974059662775615, 0.029205767910276948, 0.03743038071259632, 0.05119401846341649, 0.06327916380560006, 0.06898603799496453, 0.07335011825741969, 0.07905699244678416, 0.07905699244678416, 0.07284657053482871, 0.06831464103150987, 0.06428625925078202, 0.054551003280689715, 0.044815747310597384, 0.0260166323338674, 0.0011749446860456242, -0.01594567788204776, -0.029037918669413288, -0.044815747310597384, -0.05958648050659952, -0.07133592736705577, -0.0780498970016022, -0.08207827878233005, -0.08375677119096665, -0.08476386663614863, -0.0800640878919661, -0.06730754558632791, -0.06327916380560006, -0.057236591134508276, -0.03843747615777828, -0.022995345998321506, -0.008224612802319372, 0.009903105210955977, 0.02366674296177615, 0.03407339589532311, 0.04716563668268864, 0.06160067139696345, 0.07301441977569237, 0.07939269092851148, 0.08577096208133059, 0.07905699244678416, 0.06831464103150987, 0.06294346532387274, 0.056900892652780956, 0.04783703364614328, 0.03675898374914168, 0.019974059662775615, 0.0015106431677729458, -0.01628137636377508, -0.03105210955977722, -0.04313725490196078, -0.051865415426871134, -0.057236591134508276, -0.0703288319218738, -0.08308537422751203, -0.08879224841687647, -0.08476386663614863, -0.07872129396505684, -0.07267872129396505, -0.0639505607690547, -0.05387960631723506, -0.042801556420233464, -0.025680933852140077, -0.00788891432059205, 0.008896009765774012, 0.029037918669413288, 0.04011596856641489, 0.050522621499961846, 0.06260776684214542, 0.07100022888532845, 0.07435721370260165, 0.07637140459296558, 0.08291752498664834, 0.08358892195010299, 0.07435721370260165, 0.06344701304646372, 0.052201113908598454, 0.04078736552986953, 0.03608758678568704, 0.01527428091859312, -0.006210421911955443, -0.0213168535896849, -0.03910887312123293, -0.05488670176241703, -0.06277561608300908, -0.07301441977569237, -0.08342107270923933, -0.08896009765774013, -0.08342107270923933, -0.07368581673914701, -0.06932173647669183, -0.059250782024872196, -0.05253681239032577, -0.044480048828870064, -0.033401998931868467, -0.01695277332722972, 0.0011749446860456242, 0.017959868772411687, 0.028702220187685965, 0.03944457160296025, 0.052201113908598454, 0.06562905317769131, 0.0750286106660563, 0.08308537422751203, 0.08979934386205844, 0.08039978637369342, 0.06865033951323721, 0.06025787747005417, 0.050186923018234526, 0.03944457160296025, 0.027695124742504008, 0.010910200656137941, -0.0055390249485008005, -0.01896696421759365, -0.03508049134050507, -0.05119401846341649, -0.06126497291523613, -0.06361486228732739, -0.07234302281223774, -0.08476386663614863, -0.08812085145342184, -0.08207827878233005, -0.0750286106660563, -0.06764324406805522, -0.05656519417105363, -0.04515144579232471, -0.03172350652323186, -0.01628137636377508, 0.0005035477225909818, 0.020645456626230255, 0.04515144579232471, 0.0528725108720531, 0.0528725108720531, 0.057572289616235596, 0.06529335469596398, 0.07133592736705577, 0.07335011825741969, 0.07200732433051041, 0.06898603799496453, 0.06529335469596398, 0.05824368657969024, 0.04582284275577936, 0.030716411078049892, 0.017959868772411687, -0.0055390249485008005, -0.027023727779049357, -0.03944457160296025, -0.05085831998168917, -0.06327916380560006, -0.07133592736705577, -0.0797283894102388, -0.08426031891355765, -0.08342107270923933, -0.08274967574578469, -0.08039978637369342, -0.06932173647669183, -0.050522621499961846, -0.04078736552986953, -0.03373769741359579, -0.020309758144502935, -0.0028534370946822307, 0.017288471808957043, 0.03474479285877775, 0.049851224536507206, 0.060761425192645144, 0.06999313344014649, 0.07435721370260165, 0.07637140459296558, 0.08308537422751203, 0.09013504234378575, 0.08140688181887541, 0.06495765621423667, 0.052201113908598454, 0.042465857938506144, 0.030716411078049892, 0.01560997940032044, -0.004196231021591517, -0.024338139925230793, -0.03810177767605096, -0.04917982757305257, -0.060593575951781484, -0.06865033951323721, -0.06663614862287326, -0.07603570611123828, -0.0861066605630579, -0.08677805752651253, -0.08073548485542076, -0.07267872129396505, -0.06327916380560006, -0.0528725108720531, -0.03927672236209659, -0.0213168535896849, -0.0015106431677729458, 0.015442130159456776, 0.030716411078049892, 0.049515526054779886, 0.05857938506141757, 0.0639505607690547, 0.07066453040360113, 0.0780498970016022, 0.08308537422751203, 0.08274967574578469, 0.07704280155642022, 0.06898603799496453, 0.057236591134508276, 0.041962310215915156, 0.028030823224231328, 0.018631265735866327, 0.006546120393682764, -0.01560997940032044, -0.036423285267414354, -0.050522621499961846, -0.060593575951781484, -0.06730754558632791, -0.07335011825741969, -0.0767071030746929, -0.0780498970016022, -0.07603570611123828, -0.06865033951323721, -0.061936369878690785, -0.05522240024414436, -0.03910887312123293, -0.028030823224231328, -0.016617074845502403, 0.0011749446860456242, 0.01527428091859312, 0.02937361715114061, 0.04213015945677882, 0.05085831998168917, 0.05790798809796292, 0.06764324406805522, 0.07637140459296558, 0.07872129396505684, 0.0780498970016022, 0.08073548485542076, 0.06831464103150987, 0.050522621499961846, 0.041123064011596856, 0.028030823224231328, 0.013931486991683832, -0.0008392462043183033, -0.019974059662775615, -0.03927672236209659, -0.05471885252155337, -0.06428625925078202, -0.0703288319218738, -0.074189364461738, -0.07217517357137408, -0.0780498970016022, -0.08476386663614863, -0.08073548485542076, -0.07083237964446479, -0.06277561608300908, -0.05421530479896238, -0.04129091325246051, -0.025680933852140077, -0.0055390249485008005, 0.011917296101319903, 0.028702220187685965, 0.044815747310597384, 0.06260776684214542, 0.0703288319218738, 0.07217517357137408, 0.07536430914778362, 0.07771419851987486, 0.07905699244678416, 0.07603570611123828, 0.06344701304646372, 0.054551003280689715, 0.04515144579232471, 0.030045014114595252, 0.01560997940032044, 0.0025177386129549098, -0.008560311284046692, -0.029709315632867935, -0.05119401846341649, -0.06126497291523613, -0.06932173647669183, -0.0780498970016022, -0.08308537422751203, -0.08577096208133059, -0.08543526359960325, -0.08140688181887541, -0.07536430914778362, -0.06529335469596398, -0.04716563668268864, -0.02366674296177615, -0.012420843823910887, -0.004364080262455177, 0.007553215838864729, 0.0213168535896849, 0.035416189822232394, 0.049515526054779886, 0.060593575951781484, 0.06697184710460058, 0.07284657053482871, 0.0800640878919661, 0.08157473105973906, 0.0750286106660563, 0.07301441977569237, 0.061936369878690785, 0.04548714427405204, 0.029205767910276948, 0.014267185473411156, -0.0006713969634546426, -0.01359578850995651, -0.028030823224231328, -0.043976501106279084, -0.05790798809796292, -0.06965743495841917, -0.07536430914778362, -0.07553215838864728, -0.07267872129396505, -0.07637140459296558, -0.07737850003814756, -0.07267872129396505, -0.06294346532387274, -0.050522621499961846, -0.037094682230869, -0.02333104448004883, -0.008560311284046692, 0.0055390249485008005, 0.020477607385366595, 0.035416189822232394, 0.050522621499961846, 0.06965743495841917, 0.07435721370260165, 0.07234302281223774, 0.07570000762951096, 0.08090333409628443, 0.07838559548332952, 0.06697184710460058, 0.05992217898832684, 0.0528725108720531, 0.03944457160296025, 0.021988250553139542, 0.0052033264667734795, -0.007385366598001068, -0.01560997940032044, -0.03608758678568704, -0.057572289616235596, -0.07016098268101013, -0.074189364461738, -0.07536430914778362, -0.0780498970016022, -0.08073548485542076, -0.07821774624246586, -0.06932173647669183, -0.06327916380560006, -0.05824368657969024, -0.04213015945677882, -0.01628137636377508, 0.0005035477225909818, 0.010238803692683297, 0.022323949034866862, 0.03675898374914168, 0.048844129091325246, 0.060761425192645144, 0.0694895857175555, 0.07301441977569237, 0.0750286106660563, 0.07351796749828336, 0.06965743495841917, 0.06630045014114595, 0.06865033951323721, 0.060593575951781484, 0.042465857938506144, 0.020645456626230255, 0.0025177386129549098, -0.011581597619592583, -0.02652018005645838, -0.04145876249332417, -0.054047455558098714, -0.06797894254978255, -0.07704280155642022, -0.08073548485542076, -0.08157473105973906, -0.07335011825741969, -0.07435721370260165, -0.07939269092851148, -0.07402151522087433, -0.059250782024872196, -0.043472953383688104, -0.029037918669413288, -0.012588693064774548, 0.003860532539864194, 0.017288471808957043, 0.03407339589532311, 0.050522621499961846, 0.06562905317769131, 0.08073548485542076, 0.08174258030060273, 0.07704280155642022, 0.07637140459296558, 0.074189364461738, 0.06831464103150987, 0.06025787747005417, 0.04716563668268864, 0.030716411078049892, 0.01829556725413901, 0.005874723430228122, -0.008896009765774012, -0.021652552071412222, -0.029037918669413288, -0.04750133516441596, -0.06596475165941862, -0.07469291218432898, -0.07704280155642022, -0.08073548485542076, -0.08375677119096665, -0.07939269092851148, -0.07133592736705577, -0.06596475165941862, -0.059250782024872196, -0.048844129091325246, -0.03105210955977722, -0.005874723430228122, 0.007217517357137408, 0.01628137636377508, 0.03172350652323186, 0.04682993820096131, 0.058075837338826576, 0.06495765621423667, 0.07167162584878309, 0.07704280155642022, 0.07821774624246586, 0.07570000762951096, 0.07167162584878309, 0.06797894254978255, 0.06428625925078202, 0.04750133516441596, 0.025680933852140077, 0.00788891432059205, -0.003860532539864194, -0.01560997940032044, -0.030380712596322572, -0.04649423971923399, -0.06126497291523613, -0.07335011825741969, -0.08274967574578469, -0.08694590676737621, -0.08543526359960325, -0.0775463492790112, -0.07603570611123828, -0.07200732433051041, -0.06260776684214542, -0.048844129091325246, -0.03172350652323186, -0.012252994583047227, 0.006546120393682764, 0.019974059662775615, 0.035751888303959714, 0.051865415426871134, 0.06160067139696345, 0.07066453040360113, 0.08308537422751203, 0.08375677119096665, 0.07771419851987486, 0.07368581673914701, 0.0703288319218738, 0.06260776684214542, 0.050186923018234526, 0.03743038071259632, 0.025345235370412753, 0.009231708247501335, -0.006881818875410085, -0.02265964751659419, -0.035751888303959714, -0.041962310215915156, -0.059250782024872196, -0.07603570611123828, -0.08123903257801174, -0.08342107270923933, -0.08476386663614863, -0.08140688181887541, -0.07536430914778362, -0.06596475165941862, -0.05790798809796292, -0.05119401846341649, -0.03743038071259632, -0.01560997940032044, 0.007217517357137408, 0.01913481345845731, 0.030716411078049892, 0.04414435034714275, 0.0528725108720531, 0.06210421911955444, 0.07100022888532845, 0.07469291218432898, 0.07301441977569237, 0.07100022888532845, 0.06764324406805522, 0.06260776684214542, 0.058915083543144876, 0.0528725108720531, 0.03407339589532311, 0.013931486991683832, -0.0008392462043183033, -0.01560997940032044, -0.03172350652323186, -0.044480048828870064, -0.057572289616235596, -0.06764324406805522, -0.07335011825741969, -0.0780498970016022, -0.08274967574578469, -0.08140688181887541, -0.07100022888532845, -0.06630045014114595, -0.06260776684214542, -0.04917982757305257, -0.03105210955977722, -0.011917296101319903, 0.003189135576409552, 0.01527428091859312, 0.02668802929732204, 0.041962310215915156, 0.05555809872587166, 0.0639505607690547, 0.07301441977569237, 0.08778515297169451, 0.08409246967269397, 0.0703288319218738, 0.06327916380560006, 0.061432822156099784, 0.059250782024872196, 0.052201113908598454, 0.03675898374914168, 0.01594567788204776, -0.0035248340581368735, -0.017624170290684367, -0.027695124742504008, -0.03776607919432364, -0.04783703364614328, -0.0639505607690547, -0.07737850003814756, -0.08342107270923933, -0.08744945448996719, -0.08711375600823987, -0.08140688181887541, -0.0750286106660563, -0.06797894254978255, -0.05824368657969024, -0.044480048828870064, -0.025680933852140077, -0.001846341649500267, 0.022995345998321506, 0.03205920500495917, 0.04011596856641489, 0.051529716945143814, 0.05958648050659952, 0.06865033951323721, 0.0767071030746929, 0.0800640878919661, 0.07838559548332952, 0.07167162584878309, 0.06428625925078202, 0.05740444037537193, 0.04750133516441596, 0.03994811932555123, 0.01896696421759365, -0.001846341649500267, -0.014938582436865796, -0.02719157701991302, -0.042465857938506144, -0.05958648050659952, -0.06999313344014649, -0.07469291218432898, -0.08039978637369342, -0.08979934386205844, -0.09047074082551307, -0.08140688181887541, -0.06260776684214542, -0.053208209353780414, -0.051361867704280154, -0.041123064011596856, -0.02366674296177615, -0.004867627985046159, 0.01527428091859312, 0.03205920500495917, 0.043472953383688104, 0.05488670176241703, 0.06462195773250935, 0.07234302281223774, 0.08140688181887541, 0.08979934386205844, 0.08140688181887541, 0.07100022888532845, 0.06361486228732739, 0.05488670176241703, 0.042801556420233464, 0.028702220187685965, 0.014267185473411156, -0.0023498893720912484, -0.01695277332722972, -0.030380712596322572, -0.043472953383688104, -0.05253681239032577, -0.05824368657969024, -0.07066453040360113, -0.0800640878919661, -0.08107118333714809, -0.08308537422751203, -0.08039978637369342, -0.07133592736705577, -0.061936369878690785, -0.053208209353780414, -0.041794460975051496, -0.024338139925230793, -0.0055390249485008005, 0.010238803692683297, 0.028702220187685965, 0.04145876249332417, 0.050186923018234526, 0.059754329747463183, 0.06999313344014649, 0.07704280155642022, 0.08039978637369342, 0.08107118333714809, 0.07570000762951096, 0.06697184710460058, 0.057236591134508276, 0.043808651865415424, 0.03407339589532311, 0.028702220187685965, 0.009903105210955977, -0.014267185473411156, -0.03407339589532311, -0.04716563668268864, -0.059250782024872196, -0.06898603799496453, -0.07956054016937514, -0.08509956511787593, -0.08812085145342184, -0.08644235904478523, -0.07737850003814756, -0.06764324406805522, -0.05270466163118945, -0.04515144579232471, -0.036423285267414354, -0.020645456626230255, -0.00016784924086366064, 0.01376363775082017, 0.025177386129549097, 0.035751888303959714, 0.04750133516441596, 0.05958648050659952, 0.06965743495841917, 0.07351796749828336, 0.07469291218432898, 0.08560311284046693, 0.08308537422751203, 0.0694895857175555, 0.056061646448462656, 0.044815747310597384, 0.03138780804150454, 0.017288471808957043, 0.0011749446860456242, -0.012588693064774548, -0.027023727779049357, -0.042465857938506144, -0.054551003280689715, -0.06260776684214542, -0.06411841000991834, -0.07200732433051041, -0.08039978637369342, -0.08107118333714809, -0.07838559548332952, -0.07200732433051041, -0.06327916380560006, -0.054551003280689715, -0.041794460975051496, -0.025680933852140077, -0.006378271152819104, 0.010574502174410621, 0.02668802929732204, 0.0481727321278706, 0.05589379720759898, 0.058915083543144876, 0.0639505607690547, 0.07066453040360113, 0.07603570611123828, 0.07570000762951096, 0.06898603799496453, 0.06344701304646372, 0.05824368657969024, 0.0481727321278706, 0.03407339589532311, 0.021988250553139542, 0.01326009002822919, -0.004867627985046159, -0.027695124742504008, -0.044480048828870064, -0.05119401846341649, -0.05958648050659952, -0.07133592736705577, -0.0767071030746929, -0.0797283894102388, -0.08090333409628443, -0.08039978637369342, -0.07536430914778362, -0.06596475165941862, -0.048676279850461586, -0.0387731746395056, -0.027695124742504008, -0.010406652933546959, 0.0055390249485008005, 0.01913481345845731, 0.03608758678568704, 0.0528725108720531, 0.06160067139696345, 0.06596475165941862, 0.07267872129396505, 0.07905699244678416, 0.08073548485542076, 0.08207827878233005, 0.06932173647669183, 0.05522240024414436, 0.0481727321278706, 0.03743038071259632, 0.019974059662775615, 0.0015106431677729458, -0.01359578850995651, -0.027023727779049357, -0.040451667048142216, -0.05387960631723506, -0.0639505607690547, -0.06898603799496453, -0.06999313344014649, -0.07872129396505684, -0.08644235904478523, -0.08409246967269397, -0.07469291218432898, -0.06596475165941862, -0.05874723430228122, -0.04515144579232471, -0.024338139925230793, -0.007217517357137408, 0.006546120393682764, 0.018631265735866327, 0.03407339589532311, 0.05622949568932631, 0.06327916380560006, 0.06327916380560006, 0.06697184710460058, 0.07066453040360113, 0.07301441977569237, 0.07469291218432898, 0.06965743495841917, 0.06092927443350881, 0.050186923018234526, 0.03407339589532311, 0.0213168535896849, 0.011917296101319903, 0.0010070954451819635, -0.021652552071412222, -0.043808651865415424, -0.05555809872587166, -0.06260776684214542, -0.07133592736705577, -0.0800640878919661, -0.08476386663614863, -0.08476386663614863, -0.08241397726405737, -0.07368581673914701, -0.06327916380560006, -0.051865415426871134, -0.03373769741359579, -0.022323949034866862, -0.011581597619592583, 0.0025177386129549098, 0.01829556725413901, 0.036423285267414354, 0.05354390783550774, 0.06495765621423667, 0.07301441977569237, 0.07704280155642022, 0.07771419851987486, 0.07771419851987486, 0.0797283894102388, 0.08375677119096665, 0.07100022888532845, 0.05387960631723506, 0.041794460975051496, 0.02937361715114061, 0.01326009002822919, -0.0055390249485008005, -0.021652552071412222, -0.03776607919432364, -0.05354390783550774, -0.06529335469596398, -0.07368581673914701, -0.0750286106660563, -0.07368581673914701, -0.08426031891355765, -0.09013504234378575, -0.08308537422751203, -0.07267872129396505, -0.06327916380560006, -0.04800488288700694, -0.033401998931868467, -0.019638361181048294, -0.004196231021591517, 0.010406652933546959, 0.02668802929732204, 0.044815747310597384, 0.06630045014114595, 0.07536430914778362, 0.07486076142519264, 0.07737850003814756, 0.08107118333714809, 0.07771419851987486, 0.07234302281223774, 0.06428625925078202, 0.05522240024414436, 0.044647898069733724, 0.027695124742504008, 0.009231708247501335, -0.0035248340581368735, -0.008560311284046692, -0.027023727779049357, -0.049851224536507206, -0.06277561608300908, -0.07066453040360113, -0.07687495231555656, -0.08090333409628443, -0.08342107270923933, -0.08342107270923933, -0.07939269092851148, -0.07402151522087433, -0.061936369878690785, -0.043808651865415424, -0.025680933852140077, -0.017624170290684367, -0.007553215838864729, 0.007217517357137408, 0.02333104448004883, 0.04011596856641489, 0.05354390783550774, 0.06294346532387274, 0.0703288319218738, 0.07267872129396505, 0.07570000762951096, 0.07838559548332952, 0.07838559548332952, 0.07620355535210192, 0.059754329747463183, 0.04061951628900587, 0.024673838406958113, 0.013931486991683832, -0.00016784924086366064, -0.014938582436865796, -0.029709315632867935, -0.04582284275577936, -0.056900892652780956, -0.06495765621423667, -0.07335011825741969, -0.07603570611123828, -0.07066453040360113, -0.07402151522087433, -0.07704280155642022, -0.0703288319218738, -0.05992217898832684, -0.05085831998168917, -0.03810177767605096, -0.02333104448004883, -0.006881818875410085, 0.010910200656137941, 0.028030823224231328, 0.04414435034714275, 0.05790798809796292, 0.07301441977569237, 0.0750286106660563, 0.07469291218432898, 0.07637140459296558, 0.0750286106660563, 0.06999313344014649, 0.06092927443350881, 0.050186923018234526, 0.03927672236209659, 0.02668802929732204, 0.009903105210955977, -0.009735255970092317, -0.023834592202639806, -0.027359426260776684, -0.03843747615777828, -0.05555809872587166, -0.0703288319218738, -0.08140688181887541, -0.08426031891355765, -0.08375677119096665, -0.08157473105973906, -0.07469291218432898, -0.06663614862287326, -0.06126497291523613, -0.05304036011291676, -0.03927672236209659, -0.01560997940032044, -0.0015106431677729458, 0.007217517357137408, 0.022323949034866862, 0.041123064011596856, 0.056900892652780956, 0.06898603799496453, 0.07402151522087433, 0.07469291218432898, 0.07687495231555656, 0.0750286106660563, 0.07100022888532845, 0.06831464103150987, 0.06932173647669183, 0.05622949568932631, 0.035416189822232394, 0.019974059662775615, 0.0052033264667734795, -0.00788891432059205, -0.02349889372091249, -0.04011596856641489, -0.05589379720759898, -0.06663614862287326, -0.07267872129396505, -0.07570000762951096, -0.07838559548332952, -0.07318226901655604, -0.07267872129396505, -0.07402151522087433, -0.06596475165941862, -0.053208209353780414, -0.03675898374914168, -0.016617074845502403, 0.003189135576409552, 0.017288471808957043, 0.02937361715114061, 0.03944457160296025, 0.04682993820096131, 0.057572289616235596, 0.07368581673914701, 0.07771419851987486, 0.07301441977569237, 0.07301441977569237, 0.07469291218432898, 0.06663614862287326, 0.05421530479896238, 0.044815747310597384, 0.03138780804150454, 0.017120622568093383, -0.00016784924086366064, -0.014267185473411156, -0.025009536888685433, -0.0323949034866865, -0.048508430609597926, -0.06898603799496453, -0.07737850003814756, -0.0800640878919661, -0.08509956511787593, -0.08543526359960325, -0.08140688181887541, -0.07402151522087433, -0.06294346532387274, -0.0528725108720531, -0.041794460975051496, -0.0260166323338674, 0.0008392462043183033, 0.01326009002822919, 0.019302662699320974, 0.03474479285877775, 0.050522621499961846, 0.06025787747005417, 0.06630045014114595, 0.0703288319218738, 0.07200732433051041, 0.07368581673914701, 0.0750286106660563, 0.06865033951323721, 0.05857938506141757, 0.05337605859464408, 0.03810177767605096, 0.01594567788204776, -0.0028534370946822307, -0.014267185473411156, -0.025680933852140077, -0.03743038071259632, -0.050522621499961846, -0.06210421911955444, -0.06999313344014649, -0.07536430914778362, -0.0780498970016022, -0.07603570611123828, -0.06596475165941862, -0.06596475165941862, -0.06529335469596398, -0.054551003280689715, -0.03776607919432364, -0.022323949034866862, -0.008896009765774012, 0.007721065079728388, 0.021988250553139542, 0.03474479285877775, 0.04917982757305257, 0.06092927443350881, 0.06965743495841917, 0.08039978637369342, 0.08039978637369342, 0.07771419851987486, 0.07301441977569237, 0.06831464103150987, 0.06243991760128176, 0.05354390783550774, 0.035248340581368734, 0.01628137636377508, 0.001846341649500267, -0.01292439154650187, -0.02584878309300374, -0.03508049134050507, -0.04078736552986953, -0.05656519417105363, -0.07100022888532845, -0.07536430914778362, -0.07737850003814756, -0.08107118333714809, -0.08409246967269397, -0.07939269092851148, -0.06999313344014649, -0.058075837338826576, -0.04783703364614328, -0.033401998931868467, -0.011749446860456245, 0.012252994583047227, 0.024673838406958113, 0.03407339589532311, 0.0473334859235523, 0.05824368657969024, 0.06562905317769131, 0.06898603799496453, 0.07167162584878309, 0.07301441977569237, 0.06898603799496453, 0.06495765621423667, 0.059250782024872196, 0.050186923018234526, 0.043472953383688104, 0.028702220187685965, 0.008560311284046692, -0.010910200656137941, -0.024673838406958113, -0.03860532539864195, -0.05119401846341649, -0.062272068360418105, -0.074189364461738, -0.07603570611123828, -0.07536430914778362, -0.07905699244678416, -0.0797283894102388, -0.06999313344014649, -0.06428625925078202, -0.060593575951781484, -0.04716563668268864, -0.028366521705958644, -0.012420843823910887, 0.004196231021591517, 0.01846341649500267, 0.035751888303959714, 0.05354390783550774, 0.06361486228732739, 0.06697184710460058, 0.0750286106660563, 0.08677805752651253, 0.08241397726405737, 0.07100022888532845, 0.06495765621423667, 0.05958648050659952, 0.05253681239032577, 0.041794460975051496, 0.024673838406958113, 0.006210421911955443, -0.010238803692683297, -0.027695124742504008, -0.04313725490196078, -0.04917982757305257, -0.05085831998168917, -0.06327916380560006, -0.07637140459296558, -0.08426031891355765, -0.08577096208133059, -0.08140688181887541, -0.07435721370260165, -0.06730754558632791, -0.05824368657969024, -0.048676279850461586, -0.035416189822232394, -0.0157778286411841, 0.004867627985046159, 0.02333104448004883, 0.035751888303959714, 0.048508430609597926, 0.05958648050659952, 0.06562905317769131, 0.07100022888532845, 0.07771419851987486, 0.08140688181887541, 0.0797283894102388, 0.06932173647669183, 0.058915083543144876, 0.052201113908598454, 0.043808651865415424, 0.03608758678568704, 0.01628137636377508, -0.0052033264667734795, -0.021988250553139542, -0.03440909437705043, -0.04515144579232471, -0.057236591134508276, -0.06747539482719157, -0.07452506294346531, -0.07872129396505684, -0.08207827878233005, -0.08140688181887541, -0.07553215838864728, -0.06025787747005417, -0.052201113908598454, -0.044480048828870064, -0.0323949034866865, -0.017959868772411687, -0.00016784924086366064, 0.01359578850995651, 0.02668802929732204, 0.043808651865415424, 0.05622949568932631, 0.06294346532387274, 0.0703288319218738, 0.07838559548332952, 0.0844281681544213, 0.07737850003814756, 0.06562905317769131, 0.05857938506141757, 0.052201113908598454, 0.0387731746395056, 0.0260166323338674, 0.014602883955138474, -0.0028534370946822307, -0.0213168535896849, -0.03776607919432364, -0.053208209353780414, -0.060593575951781484, -0.06327916380560006, -0.07335011825741969, -0.08476386663614863, -0.0861066605630579, -0.08207827878233005, -0.07771419851987486, -0.06999313344014649, -0.061936369878690785, -0.050522621499961846, -0.03373769741359579, -0.01628137636377508, 0.003189135576409552, 0.020981155107957578, 0.03944457160296025, 0.051529716945143814, 0.06025787747005417, 0.06797894254978255, 0.07435721370260165, 0.07771419851987486, 0.07704280155642022, 0.07335011825741969, 0.07066453040360113, 0.06361486228732739, 0.05354390783550774, 0.042801556420233464, 0.03205920500495917, 0.025009536888685433, 0.007721065079728388, -0.01359578850995651, -0.029877164873731592, -0.044480048828870064, -0.05857938506141757, -0.07016098268101013, -0.0767071030746929, -0.08274967574578469, -0.08560311284046693, -0.08342107270923933, -0.07570000762951096, -0.06562905317769131, -0.05119401846341649, -0.04649423971923399, -0.03978027008468757, -0.02333104448004883, -0.007553215838864729, 0.004699778744182497, 0.022995345998321506, 0.04145876249332417, 0.0528725108720531, 0.06243991760128176, 0.07301441977569237, 0.08073548485542076, 0.0844281681544213, 0.08979934386205844, 0.08358892195010299, 0.06965743495841917, 0.053208209353780414, 0.03978027008468757, 0.030045014114595252, 0.0157778286411841, -0.004867627985046159, -0.02333104448004883, -0.033066300450141146, -0.043808651865415424, -0.05790798809796292, -0.06697184710460058, -0.07267872129396505, -0.08140688181887541, -0.08711375600823987, -0.0891279468986038, -0.08375677119096665, -0.07469291218432898, -0.06730754558632791, -0.05656519417105363, -0.043472953383688104, -0.027359426260776684, -0.008224612802319372, 0.008560311284046692, 0.027359426260776684, 0.04750133516441596, 0.05522240024414436, 0.0639505607690547, 0.07570000762951096, 0.08140688181887541, 0.08241397726405737, 0.08274967574578469, 0.0780498970016022, 0.07100022888532845, 0.06160067139696345, 0.048844129091325246, 0.03608758678568704, 0.020981155107957578, 0.009063859006637675, -0.01292439154650187, -0.035751888303959714, -0.04917982757305257, -0.057572289616235596, -0.06562905317769131, -0.07200732433051041, -0.07536430914778362, -0.08140688181887541, -0.08543526359960325, -0.08241397726405737, -0.07200732433051041, -0.056900892652780956, -0.03910887312123293, -0.02719157701991302, -0.019302662699320974, -0.0055390249485008005, 0.010574502174410621, 0.02668802929732204, 0.040451667048142216, 0.052201113908598454, 0.06428625925078202, 0.07301441977569237, 0.0797283894102388, 0.0844281681544213, 0.08711375600823987, 0.08778515297169451, 0.07301441977569237, 0.05656519417105363, 0.0481727321278706, 0.03944457160296025, 0.021988250553139542, -0.0028534370946822307, -0.0213168535896849, -0.0323949034866865, -0.04515144579232471, -0.060090028229190504, -0.07083237964446479, -0.0767071030746929, -0.07553215838864728, -0.08107118333714809, -0.08644235904478523, -0.08358892195010299, -0.07402151522087433, -0.06411841000991834, -0.051529716945143814, -0.035751888303959714, -0.020645456626230255, -0.003189135576409552, 0.011581597619592583, 0.0213168535896849, 0.033401998931868467, 0.053208209353780414, 0.06092927443350881, 0.06428625925078202, 0.06764324406805522, 0.07133592736705577, 0.07637140459296558, 0.07402151522087433, 0.062272068360418105, 0.050019073777370866, 0.042801556420233464, 0.030716411078049892, 0.019302662699320974, 0.011245899137865261, 0.001846341649500267, -0.021652552071412222, -0.044480048828870064, -0.056900892652780956, -0.06630045014114595, -0.07435721370260165, -0.0797283894102388, -0.08241397726405737, -0.08241397726405737, -0.07872129396505684, -0.07133592736705577, -0.06361486228732739, -0.05119401846341649, -0.028366521705958644, -0.01628137636377508, -0.008224612802319372, 0.0028534370946822307, 0.017624170290684367, 0.03474479285877775, 0.050522621499961846, 0.058915083543144876, 0.0639505607690547, 0.0703288319218738, 0.07637140459296558, 0.07905699244678416, 0.07704280155642022, 0.07570000762951096, 0.06025787747005417, 0.04548714427405204, 0.03440909437705043, 0.021652552071412222, 0.004531929503318838, -0.012252994583047227, -0.028366521705958644, -0.04313725490196078, -0.05656519417105363, -0.06529335469596398, -0.07234302281223774, -0.0780498970016022, -0.07570000762951096, -0.08107118333714809, -0.08409246967269397, -0.0780498970016022, -0.06999313344014649, -0.056900892652780956, -0.041123064011596856, -0.02265964751659419, -0.0030212863355458916, 0.012252994583047227, 0.02668802929732204, 0.04011596856641489, 0.052201113908598454, 0.06898603799496453, 0.0767071030746929, 0.07486076142519264, 0.07486076142519264, 0.0775463492790112, 0.07486076142519264, 0.06663614862287326, 0.05958648050659952, 0.052201113908598454, 0.03843747615777828, 0.02333104448004883, 0.004364080262455177, -0.011581597619592583, -0.01628137636377508, -0.03407339589532311, -0.059250782024872196, -0.06932173647669183, -0.07066453040360113, -0.07737850003814756, -0.08711375600823987, -0.0908064393072404, -0.0844281681544213, -0.07402151522087433, -0.06327916380560006, -0.05673304341191729, -0.048508430609597926, -0.022491798275730522, -0.006210421911955443, 0.0028534370946822307, 0.018631265735866327, 0.03810177767605096, 0.05253681239032577, 0.05992217898832684, 0.06596475165941862, 0.07200732433051041, 0.07536430914778362, 0.07838559548332952, 0.07737850003814756, 0.07536430914778362, 0.07083237964446479, 0.057236591134508276, 0.03743038071259632, 0.020645456626230255, 0.007217517357137408, -0.0052033264667734795, -0.020645456626230255, -0.03843747615777828, -0.053208209353780414, -0.061936369878690785, -0.0703288319218738, -0.08140688181887541, -0.0861066605630579, -0.07939269092851148, -0.07603570611123828, -0.07486076142519264, -0.06999313344014649, -0.06092927443350881, -0.049851224536507206, -0.032898451209277486, -0.010910200656137941, 0.007217517357137408, 0.017959868772411687, 0.033234149691004806, 0.0481727321278706, 0.059250782024872196, 0.07200732433051041, 0.07301441977569237, 0.07267872129396505, 0.07469291218432898, 0.07771419851987486, 0.07771419851987486, 0.0703288319218738, 0.058075837338826576, 0.043472953383688104, 0.027359426260776684, 0.009567406729228655, -0.009231708247501335, -0.01913481345845731, -0.021149004348821242, -0.03776607919432364, -0.05874723430228122, -0.07200732433051041, -0.07838559548332952, -0.08174258030060273, -0.08358892195010299, -0.08375677119096665, -0.07704280155642022, -0.06630045014114595, -0.05522240024414436, -0.043808651865415424, -0.028366521705958644, -0.006881818875410085, 0.004531929503318838, 0.012252994583047227, 0.02668802929732204, 0.04213015945677882, 0.05589379720759898, 0.06562905317769131, 0.07234302281223774, 0.07570000762951096, 0.07737850003814756, 0.07603570611123828, 0.06898603799496453, 0.058915083543144876, 0.057572289616235596, 0.04599069199664301, 0.028702220187685965, 0.009903105210955977, -0.008896009765774012, -0.024338139925230793, -0.036423285267414354, -0.048508430609597926, -0.05992217898832684, -0.06932173647669183, -0.08073548485542076, -0.08677805752651253, -0.08241397726405737, -0.07167162584878309, -0.07435721370260165, -0.07402151522087433, -0.060090028229190504, -0.043808651865415424, -0.03105210955977722, -0.01628137636377508, 0.0025177386129549098, 0.017288471808957043, 0.028366521705958644, 0.03978027008468757, 0.0520332646677348, 0.06428625925078202, 0.07838559548332952, 0.0780498970016022, 0.0750286106660563, 0.07637140459296558, 0.0767071030746929, 0.06898603799496453, 0.05824368657969024, 0.04414435034714275, 0.027695124742504008, 0.011581597619592583, -0.0055390249485008005, -0.021149004348821242, -0.036423285267414354, -0.044815747310597384, -0.06160067139696345, -0.0780498970016022, -0.08375677119096665, -0.08241397726405737, -0.08207827878233005, -0.08274967574578469, -0.0800640878919661, -0.07402151522087433, -0.06327916380560006, -0.04917982757305257, -0.03440909437705043, -0.010910200656137941, 0.018631265735866327, 0.02400244144350347, 0.0260166323338674, 0.04145876249332417, 0.05354390783550774, 0.05992217898832684, 0.07016098268101013, 0.07905699244678416, 0.0797283894102388, 0.07435721370260165, 0.06831464103150987, 0.06361486228732739, 0.05656519417105363, 0.051529716945143814, 0.03407339589532311, 0.01359578850995651, -0.0021820401312275884, -0.01695277332722972, -0.03138780804150454, -0.043305104142824444, -0.05555809872587166, -0.06697184710460058, -0.07200732433051041, -0.07570000762951096, -0.08073548485542076, -0.07939269092851148, -0.07066453040360113, -0.06663614862287326, -0.06663614862287326, -0.05622949568932631, -0.03776607919432364, -0.024338139925230793, -0.01292439154650187, -0.00016784924086366064, 0.019302662699320974, 0.04313725490196078, 0.05656519417105363, 0.06495765621423667, 0.07704280155642022, 0.08677805752651253, 0.08274967574578469, 0.07402151522087433, 0.06797894254978255, 0.0639505607690547, 0.05421530479896238, 0.04414435034714275, 0.032730601968413826, 0.01829556725413901, 0.0035248340581368735, -0.011917296101319903, -0.02853437094682231, -0.042465857938506144, -0.04682993820096131, -0.059250782024872196, -0.06999313344014649, -0.07234302281223774, -0.07620355535210192, -0.07872129396505684, -0.0775463492790112, -0.07133592736705577, -0.05992217898832684, -0.04716563668268864, -0.035248340581368734, -0.020645456626230255, -0.001846341649500267, 0.020981155107957578, 0.03407339589532311, 0.04145876249332417, 0.052201113908598454, 0.06630045014114595, 0.07838559548332952, 0.08476386663614863, 0.08241397726405737, 0.0750286106660563, 0.06495765621423667, 0.05555809872587166, 0.0481727321278706, 0.04213015945677882, 0.03910887312123293, 0.0213168535896849, 0.00016784924086366064, -0.014602883955138474, -0.029205767910276948, -0.04515144579232471, -0.057236591134508276, -0.06529335469596398, -0.0767071030746929, -0.0861066605630579, -0.08711375600823987, -0.08274967574578469, -0.0797283894102388, -0.06562905317769131, -0.05790798809796292, -0.054551003280689715, -0.04313725490196078, -0.025009536888685433, -0.0050354772259098195, 0.011917296101319903, 0.025345235370412753, 0.036423285267414354, 0.04615854123750667, 0.056900892652780956, 0.06630045014114595, 0.0767071030746929, 0.09181353475242236, 0.08677805752651253, 0.06932173647669183, 0.06025787747005417, 0.057236591134508276, 0.04783703364614328, 0.03440909437705043, 0.017959868772411687, 0.001846341649500267, -0.01359578850995651, -0.028366521705958644, -0.03978027008468757, -0.050522621499961846, -0.058915083543144876, -0.07133592736705577, -0.07771419851987486, -0.08140688181887541, -0.08543526359960325, -0.08543526359960325, -0.07737850003814756, -0.06764324406805522, -0.05874723430228122, -0.04414435034714275, -0.029709315632867935, -0.014267185473411156, 0.006546120393682764, 0.030716411078049892, 0.04213015945677882, 0.050522621499961846, 0.06294346532387274, 0.07402151522087433, 0.07838559548332952, 0.08039978637369342, 0.0800640878919661, 0.08039978637369342, 0.07637140459296558, 0.06529335469596398, 0.05354390783550774, 0.042465857938506144, 0.030716411078049892, 0.008560311284046692, -0.01359578850995651, -0.027023727779049357, -0.035751888303959714, -0.04917982757305257, -0.06361486228732739, -0.07368581673914701, -0.08140688181887541, -0.08812085145342184, -0.08896009765774013, -0.08375677119096665, -0.07469291218432898, -0.05656519417105363, -0.04750133516441596, -0.040451667048142216, -0.025680933852140077, -0.007049668116273747, 0.009903105210955977, 0.025009536888685433, 0.03860532539864195, 0.04649423971923399, 0.0528725108720531, 0.05992217898832684, 0.06814679179064621, 0.07771419851987486, 0.0891279468986038, 0.08107118333714809, 0.06562905317769131, 0.0528725108720531, 0.04213015945677882, 0.03407339589532311, 0.02400244144350347, 0.011245899137865261, -0.007553215838864729, -0.024338139925230793, -0.03944457160296025, -0.054551003280689715, -0.06294346532387274, -0.06361486228732739, -0.07570000762951096, -0.0861066605630579, -0.0882887006942855, -0.08291752498664834, -0.07167162584878309, -0.0639505607690547, -0.056900892652780956, -0.04649423971923399, -0.03189135576409552, -0.014602883955138474, 0.004531929503318838, 0.021652552071412222, 0.04061951628900587, 0.049851224536507206, 0.058915083543144876, 0.07183947508964675, 0.07771419851987486, 0.08023193713282978, 0.0797283894102388, 0.07335011825741969, 0.06630045014114595, 0.06160067139696345, 0.0528725108720531, 0.041123064011596856, 0.032730601968413826, 0.021820401312275882, -0.0035248340581368735, -0.025345235370412753, -0.042465857938506144, -0.05589379720759898, -0.06529335469596398, -0.07469291218432898, -0.08476386663614863, -0.08778515297169451, -0.08509956511787593, -0.0800640878919661, -0.07570000762951096, -0.06596475165941862, -0.04515144579232471, -0.03843747615777828, -0.035416189822232394, -0.017288471808957043, 0.0052033264667734795, 0.017288471808957043, 0.030716411078049892, 0.04414435034714275, 0.05622949568932631, 0.06495765621423667, 0.07234302281223774, 0.0797283894102388, 0.08039978637369342, 0.08174258030060273, 0.07167162584878309, 0.058915083543144876, 0.049851224536507206, 0.03810177767605096, 0.025345235370412753, 0.013931486991683832, -0.003189135576409552, -0.019302662699320974, -0.03172350652323186, -0.044815747310597384, -0.057572289616235596, -0.06663614862287326, -0.06865033951323721, -0.07536430914778362, -0.0844281681544213, -0.08744945448996719, -0.08207827878233005, -0.06999313344014649, -0.06025787747005417, -0.049851224536507206, -0.035751888303959714, -0.020309758144502935, -0.0028534370946822307, 0.014602883955138474, 0.03608758678568704, 0.056900892652780956, 0.06361486228732739, 0.06562905317769131, 0.0703288319218738, 0.07553215838864728, 0.07771419851987486, 0.07603570611123828, 0.06999313344014649, 0.06327916380560006, 0.05421530479896238, 0.04213015945677882, 0.02937361715114061, 0.017624170290684367, 0.007217517357137408, -0.01292439154650187, -0.03373769741359579, -0.04783703364614328, -0.05522240024414436, -0.06092927443350881, -0.07200732433051041, -0.08274967574578469, -0.08543526359960325, -0.08140688181887541, -0.07435721370260165, -0.06529335469596398, -0.05119401846341649, -0.03474479285877775, -0.030380712596322572, -0.02366674296177615, -0.006210421911955443, 0.011245899137865261, 0.025680933852140077, 0.04129091325246051, 0.053208209353780414, 0.06630045014114595, 0.07301441977569237, 0.0750286106660563, 0.07368581673914701, 0.07234302281223774, 0.0750286106660563, 0.06462195773250935, 0.05085831998168917, 0.03810177767605096, 0.026352330815594724, 0.013931486991683832, -0.00016784924086366064, -0.01560997940032044, -0.03440909437705043, -0.0473334859235523, -0.058915083543144876, -0.07133592736705577, -0.07335011825741969, -0.06764324406805522, -0.07301441977569237, -0.08140688181887541, -0.07939269092851148, -0.07133592736705577, -0.06495765621423667, -0.053208209353780414, -0.03608758678568704, -0.01628137636377508, 0.0011749446860456242, 0.01594567788204776, 0.024673838406958113, 0.03843747615777828, 0.05874723430228122, 0.06697184710460058, 0.06562905317769131, 0.06831464103150987, 0.07368581673914701, 0.07335011825741969, 0.06898603799496453, 0.06428625925078202, 0.05488670176241703, 0.041794460975051496, 0.03105210955977722, 0.018631265735866327, 0.004867627985046159, -0.0055390249485008005, -0.025009536888685433, -0.04515144579232471, -0.05656519417105363, -0.06663614862287326, -0.07570000762951096, -0.08140688181887541, -0.08476386663614863, -0.08493171587701229, -0.08241397726405737, -0.07469291218432898, -0.06327916380560006, -0.04800488288700694, -0.028030823224231328, -0.017792019531548024, -0.008560311284046692, 0.00788891432059205, 0.02333104448004883, 0.03474479285877775, 0.0481727321278706, 0.06126497291523613, 0.06898603799496453, 0.07234302281223774, 0.07570000762951096, 0.07771419851987486, 0.0780498970016022, 0.07637140459296558, 0.06126497291523613, 0.04414435034714275, 0.03138780804150454, 0.01829556725413901, 0.0052033264667734795, -0.010238803692683297, -0.02937361715114061, -0.04548714427405204, -0.05790798809796292, -0.06999313344014649, -0.07704280155642022, -0.07536430914778362, -0.07469291218432898, -0.08174258030060273, -0.08241397726405737, -0.07402151522087433, -0.06327916380560006, -0.049347676813916226, -0.03508049134050507, -0.019302662699320974, -0.001846341649500267, 0.015106431677729458, 0.029877164873731592, 0.04145876249332417, 0.055390249485008015, 0.07368581673914701, 0.07838559548332952, 0.07335011825741969, 0.07301441977569237, 0.07603570611123828, 0.07570000762951096, 0.06663614862287326, 0.05555809872587166, 0.04682993820096131, 0.03474479285877775, 0.0213168535896849, 0.004867627985046159, -0.008560311284046692, -0.015442130159456776, -0.03172350652323186, -0.051865415426871134, -0.06730754558632791, -0.07335011825741969, -0.08073548485542076, -0.08694590676737621, -0.08274967574578469, -0.07603570611123828, -0.07133592736705577, -0.06596475165941862, -0.057236591134508276, -0.03944457160296025, -0.014602883955138474, -0.0015106431677729458, 0.008560311284046692, 0.02265964751659419, 0.0387731746395056, 0.052201113908598454, 0.05958648050659952, 0.06663614862287326, 0.07066453040360113, 0.07335011825741969, 0.07368581673914701, 0.06865033951323721, 0.06361486228732739, 0.06495765621423667, 0.05421530479896238, 0.035751888303959714, 0.019302662699320974, 0.005874723430228122, -0.007553215838864729, -0.024338139925230793, -0.043472953383688104, -0.05824368657969024, -0.06865033951323721, -0.07570000762951096, -0.08207827878233005, -0.08375677119096665, -0.07872129396505684, -0.08207827878233005, -0.08023193713282978, -0.06999313344014649, -0.05958648050659952, -0.04682993820096131, -0.027862973983367664, -0.010910200656137941, 0.0052033264667734795, 0.0213168535896849, 0.03810177767605096, 0.051865415426871134, 0.06562905317769131, 0.08140688181887541, 0.08358892195010299, 0.08039978637369342, 0.08039978637369342, 0.07838559548332952, 0.07167162584878309, 0.062272068360418105, 0.05337605859464408, 0.03944457160296025, 0.02265964751659419, 0.003860532539864194, -0.014602883955138474, -0.0260166323338674, -0.03105210955977722, -0.04682993820096131, -0.06529335469596398, -0.07603570611123828, -0.07838559548332952, -0.07939269092851148, -0.08224612802319371, -0.08140688181887541, -0.07066453040360113, -0.062272068360418105, -0.05958648050659952, -0.04582284275577936, -0.022491798275730522, 0.0005035477225909818, 0.010406652933546959, 0.01594567788204776, 0.02853437094682231, 0.04414435034714275, 0.05522240024414436, 0.06160067139696345, 0.06831464103150987, 0.07603570611123828, 0.0797283894102388, 0.07486076142519264, 0.06764324406805522, 0.062272068360418105, 0.05857938506141757, 0.043472953383688104, 0.02333104448004883, 0.0052033264667734795, -0.010238803692683297, -0.02366674296177615, -0.03860532539864195, -0.053208209353780414, -0.06596475165941862, -0.07267872129396505, -0.07704280155642022, -0.08342107270923933, -0.08140688181887541, -0.06797894254978255, -0.06462195773250935, -0.06411841000991834, -0.05253681239032577, -0.036423285267414354, -0.021652552071412222, -0.008560311284046692, 0.0025177386129549098, 0.015106431677729458, 0.033066300450141146, 0.04682993820096131, 0.05824368657969024, 0.07100022888532845, 0.08308537422751203, 0.08291752498664834, 0.0800640878919661, 0.07821774624246586, 0.07167162584878309, 0.061936369878690785, 0.054551003280689715, 0.041794460975051496, 0.019302662699320974, -0.0005035477225909818, -0.01359578850995651, -0.025009536888685433, -0.03373769741359579, -0.03675898374914168, -0.049851224536507206, -0.06898603799496453, -0.08241397726405737, -0.08509956511787593, -0.08577096208133059, -0.08409246967269397, -0.07838559548332952, -0.0703288319218738, -0.06260776684214542, -0.0528725108720531, -0.03776607919432364, -0.01829556725413901, 0.0052033264667734795, 0.017120622568093383, 0.027359426260776684, 0.04213015945677882, 0.05488670176241703, 0.06562905317769131, 0.07016098268101013, 0.07620355535210192, 0.08274967574578469, 0.08241397726405737, 0.07570000762951096, 0.06596475165941862, 0.05992217898832684, 0.05555809872587166, 0.035751888303959714, 0.011245899137865261, -0.007217517357137408, -0.024338139925230793, -0.04213015945677882, -0.05589379720759898, -0.06327916380560006, -0.07133592736705577, -0.07570000762951096, -0.0800640878919661, -0.08627450980392155, -0.07939269092851148, -0.062272068360418105, -0.05673304341191729, -0.05589379720759898, -0.049515526054779886, -0.037094682230869, -0.020309758144502935, 0.001846341649500267, 0.019638361181048294, 0.033066300450141146, 0.04750133516441596, 0.05790798809796292, 0.06260776684214542, 0.06730754558632791, 0.08073548485542076, 0.08274967574578469, 0.0750286106660563, 0.06898603799496453, 0.06562905317769131, 0.05622949568932631, 0.04145876249332417, 0.02366674296177615, 0.006210421911955443, -0.006546120393682764, -0.020309758144502935, -0.035751888303959714, -0.049515526054779886, -0.05522240024414436, -0.06697184710460058, -0.07872129396505684, -0.08694590676737621, -0.09382772564278628, -0.08879224841687647, -0.0800640878919661, -0.07536430914778362, -0.06764324406805522, -0.05522240024414436, -0.03910887312123293, -0.020981155107957578, 0.0025177386129549098, 0.027359426260776684, 0.036423285267414354, 0.043472953383688104, 0.05857938506141757, 0.0703288319218738, 0.07469291218432898, 0.0797283894102388, 0.08174258030060273, 0.07771419851987486, 0.07267872129396505, 0.06630045014114595, 0.06160067139696345, 0.05253681239032577, 0.04548714427405204, 0.024673838406958113, -0.003356984817273213, -0.021652552071412222, -0.03508049134050507, -0.04716563668268864, -0.05790798809796292, -0.06999313344014649, -0.07536430914778362, -0.07603570611123828, -0.08073548485542076, -0.07939269092851148, -0.07133592736705577, -0.057572289616235596, -0.051865415426871134, -0.04917982757305257, -0.04078736552986953, -0.02668802929732204, -0.005874723430228122, 0.011917296101319903, 0.0260166323338674, 0.04145876249332417, 0.05488670176241703, 0.06361486228732739, 0.07234302281223774, 0.08140688181887541, 0.09097428854810408, 0.08677805752651253, 0.07368581673914701, 0.05958648050659952, 0.049347676813916226, 0.04145876249332417, 0.028030823224231328, 0.01376363775082017, -0.0008392462043183033, -0.0157778286411841, -0.03373769741359579, -0.050522621499961846, -0.059250782024872196, -0.058915083543144876, -0.07284657053482871, -0.08845654993514916, -0.09047074082551307, -0.08140688181887541, -0.07267872129396505, -0.06663614862287326, -0.06361486228732739, -0.05253681239032577, -0.036423285267414354, -0.018631265735866327, -0.0016784924086366065, 0.011917296101319903, 0.03105210955977722, 0.04414435034714275, 0.0528725108720531, 0.06344701304646372, 0.07049668116273747, 0.07435721370260165, 0.07905699244678416, 0.07620355535210192, 0.06663614862287326, 0.05824368657969024, 0.050186923018234526, 0.04531929503318838, 0.03978027008468757, 0.028030823224231328, 0.0052033264667734795, -0.013931486991683832, -0.028366521705958644, -0.04313725490196078, -0.059250782024872196, -0.06999313344014649, -0.07536430914778362, -0.0780498970016022, -0.08157473105973906, -0.08358892195010299, -0.07872129396505684, -0.06411841000991834, -0.04615854123750667, -0.03944457160296025, -0.035751888303959714, -0.024338139925230793, -0.0055390249485008005, 0.009231708247501335, 0.021988250553139542, 0.037094682230869, 0.049515526054779886, 0.05992217898832684, 0.06764324406805522, 0.0703288319218738, 0.07351796749828336, 0.07637140459296558, 0.06865033951323721, 0.060761425192645144, 0.05622949568932631, 0.0528725108720531, 0.04011596856641489, 0.019974059662775615, 0.0011749446860456242, -0.01326009002822919, -0.026352330815594724, -0.03978027008468757, -0.05354390783550774, -0.06411841000991834, -0.06630045014114595, -0.07737850003814756, -0.08845654993514916, -0.0882887006942855, -0.08107118333714809, -0.07284657053482871, -0.06697184710460058, -0.05857938506141757, -0.044480048828870064, -0.025680933852140077, -0.006210421911955443, 0.012252994583047227, 0.029037918669413288, 0.04682993820096131, 0.05555809872587166, 0.06428625925078202, 0.07066453040360113, 0.07704280155642022, 0.08476386663614863, 0.08778515297169451, 0.08140688181887541, 0.07301441977569237, 0.064789806973373, 0.053208209353780414, 0.035416189822232394, 0.0213168535896849, 0.01326009002822919, -0.006881818875410085, -0.03172350652323186, -0.048676279850461586, -0.060593575951781484, -0.06797894254978255, -0.07402151522087433, -0.08543526359960325, -0.08963149462119477, -0.08879224841687647, -0.08308537422751203, -0.07872129396505684, -0.06797894254978255, -0.04582284275577936, -0.03373769741359579, -0.027359426260776684, -0.01359578850995651, 0.006210421911955443, 0.023834592202639806, 0.03810177767605096, 0.050690470740825506, 0.057572289616235596, 0.06294346532387274, 0.07016098268101013, 0.07939269092851148, 0.0844281681544213, 0.08577096208133059, 0.07637140459296558, 0.060593575951781484, 0.049515526054779886, 0.03743038071259632, 0.021988250553139542, 0.003189135576409552, -0.010910200656137941, -0.020981155107957578, -0.03810177767605096, -0.054551003280689715, -0.06630045014114595, -0.07737850003814756, -0.07536430914778362, -0.07737850003814756, -0.08476386663614863, -0.08476386663614863, -0.07536430914778362, -0.06630045014114595, -0.05992217898832684, -0.04716563668268864, -0.029709315632867935, -0.015106431677729458, -0.0008392462043183033, 0.017624170290684367, 0.03675898374914168, 0.058915083543144876, 0.06663614862287326, 0.06730754558632791, 0.0703288319218738, 0.07553215838864728, 0.07486076142519264, 0.07100022888532845, 0.0703288319218738, 0.06730754558632791, 0.056900892652780956, 0.041123064011596856, 0.02333104448004883, 0.01376363775082017, 0.005874723430228122, -0.01829556725413901, -0.04078736552986953, -0.049851224536507206, -0.05656519417105363, -0.06865033951323721, -0.0775463492790112, -0.08342107270923933, -0.08342107270923933, -0.0800640878919661, -0.07637140459296558, -0.06999313344014649, -0.059250782024872196, -0.03910887312123293, -0.027023727779049357, -0.016617074845502403, -0.00016784924086366064, 0.01846341649500267, 0.035919737544823374, 0.051361867704280154, 0.06025787747005417, 0.06797894254978255, 0.07435721370260165, 0.07838559548332952, 0.07905699244678416, 0.07956054016937514, 0.08140688181887541, 0.06663614862287326, 0.0481727321278706, 0.03474479285877775, 0.022323949034866862, 0.00788891432059205, -0.008224612802319372, -0.02265964751659419, -0.03440909437705043, -0.04649423971923399, -0.060593575951781484, -0.07267872129396505, -0.0767071030746929, -0.07200732433051041, -0.08107118333714809, -0.09147783627069504, -0.08375677119096665, -0.06630045014114595, -0.054047455558098714, -0.044480048828870064, -0.03121995880064088, -0.01896696421759365, -0.0021820401312275884, 0.01326009002822919, 0.028702220187685965, 0.0481727321278706, 0.07066453040360113, 0.07570000762951096, 0.07368581673914701, 0.07603570611123828, 0.08107118333714809, 0.08308537422751203, 0.07637140459296558, 0.06361486228732739, 0.05488670176241703, 0.043808651865415424, 0.028702220187685965, 0.010574502174410621, -0.004531929503318838, -0.011581597619592583, -0.03407339589532311, -0.05488670176241703, -0.06697184710460058, -0.0767071030746929, -0.08140688181887541, -0.08090333409628443, -0.08107118333714809, -0.07872129396505684, -0.07536430914778362, -0.0694895857175555, -0.05656519417105363, -0.043305104142824444, -0.024338139925230793, -0.01359578850995651, -0.003860532539864194, 0.011917296101319903, 0.028702220187685965, 0.04011596856641489, 0.05085831998168917, 0.06160067139696345, 0.06932173647669183, 0.07368581673914701, 0.07570000762951096, 0.07570000762951096, 0.07402151522087433, 0.0750286106660563, 0.05958648050659952, 0.03743038071259632, 0.02400244144350347, 0.010574502174410621, -0.006881818875410085, -0.022323949034866862, -0.03440909437705043, -0.04716563668268864, -0.05824368657969024, -0.06797894254978255, -0.074189364461738, -0.07704280155642022, -0.07570000762951096, -0.08140688181887541, -0.08543526359960325, -0.07821774624246586, -0.06495765621423667, -0.050690470740825506, -0.03508049134050507, -0.020645456626230255, -0.0050354772259098195, 0.009903105210955977, 0.02366674296177615, 0.04078736552986953, 0.06092927443350881, 0.08174258030060273, 0.08241397726405737, 0.07318226901655604, 0.07452506294346531, 0.07905699244678416, 0.0750286106660563, 0.06462195773250935, 0.05505455100328068, 0.041794460975051496, 0.025345235370412753, 0.008560311284046692, -0.004196231021591517, -0.014267185473411156, -0.020309758144502935, -0.035751888303959714, -0.05354390783550774, -0.06865033951323721, -0.07469291218432898, -0.07737850003814756, -0.0800640878919661, -0.07838559548332952, -0.07234302281223774, -0.06596475165941862, -0.06277561608300908, -0.054047455558098714, -0.03407339589532311, -0.009567406729228655, 0.003189135576409552, 0.009231708247501335, 0.020309758144502935, 0.03675898374914168, 0.05354390783550774, 0.06965743495841917, 0.07872129396505684, 0.08207827878233005, 0.08274967574578469, 0.07771419851987486, 0.07234302281223774, 0.06764324406805522, 0.06697184710460058, 0.0528725108720531, 0.033066300450141146, 0.01560997940032044, -0.0021820401312275884, -0.019974059662775615, -0.03508049134050507, -0.04649423971923399, -0.054551003280689715, -0.06663614862287326, -0.0767071030746929, -0.07939269092851148, -0.0800640878919661, -0.07402151522087433, -0.07335011825741969, -0.07301441977569237, -0.06663614862287326, -0.051529716945143814, -0.03440909437705043, -0.020309758144502935, -0.00788891432059205, 0.009231708247501335, 0.02400244144350347, 0.03843747615777828, 0.05555809872587166, 0.06965743495841917, 0.08308537422751203, 0.0844281681544213, 0.08174258030060273, 0.08174258030060273, 0.0797283894102388, 0.0703288319218738, 0.057572289616235596, 0.04414435034714275, 0.032730601968413826, 0.01829556725413901, 0.0011749446860456242, -0.017624170290684367, -0.03508049134050507, -0.041794460975051496, -0.05522240024414436, -0.07435721370260165, -0.08677805752651253, -0.09047074082551307, -0.08845654993514916, -0.08543526359960325, -0.08073548485542076, -0.07301441977569237, -0.060761425192645144, -0.04917982757305257, -0.0379339284351873, -0.020981155107957578, 0.0016784924086366065, 0.010574502174410621, 0.01695277332722972, 0.033401998931868467, 0.05270466163118945, 0.06630045014114595, 0.07083237964446479, 0.07200732433051041, 0.07435721370260165, 